Z:\500_500\Data\2013-3\Ross\HPmelting\Mo\cell_gs-1\CeO2_Nov15_2013_003_0001.tif:
2-Theta Angle (Degrees)

       1110
 5.2696204E+00  1.4196071E+02
 5.2890296E+00  1.4215254E+02
 5.3084388E+00  1.4227681E+02
 5.3278480E+00  1.4260051E+02
 5.3472571E+00  1.4309389E+02
 5.3666668E+00  1.4299228E+02
 5.3860760E+00  1.4277844E+02
 5.4054852E+00  1.4300777E+02
 5.4248943E+00  1.4335150E+02
 5.4443035E+00  1.4349930E+02
 5.4637132E+00  1.4357570E+02
 5.4831223E+00  1.4358775E+02
 5.5025315E+00  1.4367033E+02
 5.5219407E+00  1.4375111E+02
 5.5413504E+00  1.4376057E+02
 5.5607595E+00  1.4440863E+02
 5.5801687E+00  1.4474962E+02
 5.5995779E+00  1.4484750E+02
 5.6189871E+00  1.4446263E+02
 5.6383967E+00  1.4443340E+02
 5.6578059E+00  1.4454973E+02
 5.6772151E+00  1.4457530E+02
 5.6966243E+00  1.4412463E+02
 5.7160335E+00  1.4434189E+02
 5.7354431E+00  1.4439258E+02
 5.7548523E+00  1.4443565E+02
 5.7742615E+00  1.4367674E+02
 5.7936707E+00  1.4365234E+02
 5.8130803E+00  1.4344843E+02
 5.8324895E+00  1.4336293E+02
 5.8518987E+00  1.4268407E+02
 5.8713078E+00  1.4237424E+02
 5.8907170E+00  1.4238513E+02
 5.9101267E+00  1.4186769E+02
 5.9295359E+00  1.4120500E+02
 5.9489450E+00  1.4155591E+02
 5.9683542E+00  1.4164192E+02
 5.9877634E+00  1.4122482E+02
 6.0071731E+00  1.4154123E+02
 6.0265822E+00  1.4138243E+02
 6.0459914E+00  1.4074248E+02
 6.0654006E+00  1.4009230E+02
 6.0848103E+00  1.4032936E+02
 6.1042194E+00  1.3935867E+02
 6.1236286E+00  1.3906189E+02
 6.1430378E+00  1.3882933E+02
 6.1624470E+00  1.3832945E+02
 6.1818566E+00  1.3697633E+02
 6.2012658E+00  1.3698961E+02
 6.2206750E+00  1.3654829E+02
 6.2400842E+00  1.3615971E+02
 6.2594938E+00  1.3527107E+02
 6.2789030E+00  1.3506667E+02
 6.2983122E+00  1.3466623E+02
 6.3177214E+00  1.3458784E+02
 6.3371305E+00  1.3423683E+02
 6.3565402E+00  1.3358330E+02
 6.3759494E+00  1.3294975E+02
 6.3953586E+00  1.3240923E+02
 6.4147677E+00  1.3137166E+02
 6.4341769E+00  1.3069704E+02
 6.4535866E+00  1.3034343E+02
 6.4729958E+00  1.3008505E+02
 6.4924049E+00  1.2939577E+02
 6.5118141E+00  1.2905376E+02
 6.5312238E+00  1.2912224E+02
 6.5506330E+00  1.2903871E+02
 6.5700421E+00  1.2836925E+02
 6.5894513E+00  1.2727357E+02
 6.6088605E+00  1.2695648E+02
 6.6282701E+00  1.2713842E+02
 6.6476793E+00  1.2672056E+02
 6.6670885E+00  1.2558205E+02
 6.6864977E+00  1.2461922E+02
 6.7059069E+00  1.2442667E+02
 6.7253165E+00  1.2459705E+02
 6.7447257E+00  1.2391064E+02
 6.7641349E+00  1.2306026E+02
 6.7835441E+00  1.2215101E+02
 6.8029537E+00  1.2185312E+02
 6.8223629E+00  1.2155505E+02
 6.8417721E+00  1.2133693E+02
 6.8611813E+00  1.2113875E+02
 6.8805904E+00  1.2086317E+02
 6.9000001E+00  1.2068792E+02
 6.9194093E+00  1.2001172E+02
 6.9388185E+00  1.1984837E+02
 6.9582276E+00  1.1962369E+02
 6.9776368E+00  1.1936503E+02
 6.9970465E+00  1.1914296E+02
 7.0164557E+00  1.1920458E+02
 7.0358648E+00  1.1950088E+02
 7.0552740E+00  1.1976408E+02
 7.0746837E+00  1.1902345E+02
 7.0940928E+00  1.1867372E+02
 7.1135020E+00  1.1882005E+02
 7.1329112E+00  1.1933163E+02
 7.1523204E+00  1.1973201E+02
 7.1717300E+00  1.2028824E+02
 7.1911392E+00  1.2130795E+02
 7.2105484E+00  1.2197608E+02
 7.2299576E+00  1.2310806E+02
 7.2493672E+00  1.2484238E+02
 7.2687764E+00  1.2706123E+02
 7.2881856E+00  1.2965918E+02
 7.3075948E+00  1.3367162E+02
 7.3270040E+00  1.3909244E+02
 7.3464136E+00  1.4751395E+02
 7.3658228E+00  1.6086563E+02
 7.3852320E+00  1.9131412E+02
 7.4046412E+00  3.4323123E+02
 7.4240503E+00  1.5955004E+03
 7.4434600E+00  4.2397676E+03
 7.4628692E+00  6.1917593E+03
 7.4822783E+00  4.6599072E+03
 7.5016875E+00  1.7090490E+03
 7.5210972E+00  3.6309143E+02
 7.5405064E+00  1.9404219E+02
 7.5599155E+00  1.6085556E+02
 7.5793247E+00  1.4519337E+02
 7.5987339E+00  1.3447826E+02
 7.6181436E+00  1.2796918E+02
 7.6375527E+00  1.2240764E+02
 7.6569619E+00  1.1829273E+02
 7.6763711E+00  1.1458762E+02
 7.6957803E+00  1.1152706E+02
 7.7151899E+00  1.0885416E+02
 7.7345991E+00  1.0681177E+02
 7.7540083E+00  1.0508875E+02
 7.7734175E+00  1.0372261E+02
 7.7928271E+00  1.0231017E+02
 7.8122363E+00  1.0096461E+02
 7.8316455E+00  9.9689194E+01
 7.8510547E+00  9.8845192E+01
 7.8704638E+00  9.7882965E+01
 7.8898735E+00  9.6922401E+01
 7.9092827E+00  9.5681870E+01
 7.9286919E+00  9.5013405E+01
 7.9481010E+00  9.4685318E+01
 7.9675102E+00  9.4118362E+01
 7.9869199E+00  9.3046532E+01
 8.0063286E+00  9.2349709E+01
 8.0257387E+00  9.1574982E+01
 8.0451479E+00  9.0738823E+01
 8.0645571E+00  9.0280197E+01
 8.0839663E+00  9.0047157E+01
 8.1033754E+00  9.0003838E+01
 8.1227846E+00  8.9836105E+01
 8.1421938E+00  8.9269905E+01
 8.1616030E+00  8.8582138E+01
 8.1810122E+00  8.7673065E+01
 8.2004223E+00  8.6994492E+01
 8.2198315E+00  8.6750603E+01
 8.2392406E+00  8.6529404E+01
 8.2586498E+00  8.6494812E+01
 8.2780590E+00  8.6365120E+01
 8.2974682E+00  8.6095276E+01
 8.3168774E+00  8.5866837E+01
 8.3362865E+00  8.5858574E+01
 8.3556957E+00  8.5649818E+01
 8.3751059E+00  8.5592293E+01
 8.3945150E+00  8.5503021E+01
 8.4139242E+00  8.5732391E+01
 8.4333334E+00  8.6574005E+01
 8.4527426E+00  8.7340721E+01
 8.4721518E+00  8.8162323E+01
 8.4915609E+00  8.9606392E+01
 8.5109701E+00  9.2137634E+01
 8.5303793E+00  9.6617050E+01
 8.5497885E+00  1.1150639E+02
 8.5691986E+00  2.1842807E+02
 8.5886078E+00  7.5739789E+02
 8.6080170E+00  1.4800085E+03
 8.6274261E+00  1.5655458E+03
 8.6468353E+00  8.7556909E+02
 8.6662445E+00  2.8962332E+02
 8.6856537E+00  1.1766053E+02
 8.7050629E+00  9.7026215E+01
 8.7244720E+00  8.9868622E+01
 8.7438822E+00  8.6607361E+01
 8.7632914E+00  8.4087105E+01
 8.7827005E+00  8.2118599E+01
 8.8021097E+00  8.0789413E+01
 8.8215189E+00  7.9427078E+01
 8.8409281E+00  7.8320618E+01
 8.8603373E+00  7.7759521E+01
 8.8797464E+00  7.7281837E+01
 8.8991556E+00  7.6763252E+01
 8.9185658E+00  7.6022484E+01
 8.9379749E+00  7.5405693E+01
 8.9573841E+00  7.4892273E+01
 8.9767933E+00  7.4568993E+01
 8.9962025E+00  7.3981293E+01
 9.0156116E+00  7.3691254E+01
 9.0350208E+00  7.3214806E+01
 9.0544300E+00  7.2705986E+01
 9.0738392E+00  7.2173500E+01
 9.0932484E+00  7.2279625E+01
 9.1126585E+00  7.2322205E+01
 9.1320677E+00  7.1728882E+01
 9.1514769E+00  7.0893799E+01
 9.1708860E+00  7.0634148E+01
 9.1902952E+00  7.0570702E+01
 9.2097044E+00  7.0434792E+01
 9.2291136E+00  7.0282745E+01
 9.2485228E+00  6.9922325E+01
 9.2679319E+00  6.9403816E+01
 9.2873421E+00  6.9208755E+01
 9.3067513E+00  6.9203140E+01
 9.3261604E+00  6.8981125E+01
 9.3455696E+00  6.8523079E+01
 9.3649788E+00  6.8187828E+01
 9.3843880E+00  6.8119835E+01
 9.4037971E+00  6.8057426E+01
 9.4232063E+00  6.7836037E+01
 9.4426155E+00  6.7431572E+01
 9.4620256E+00  6.7230942E+01
 9.4814348E+00  6.7113266E+01
 9.5008440E+00  6.6937012E+01
 9.5202532E+00  6.7152733E+01
 9.5396624E+00  6.7300346E+01
 9.5590715E+00  6.7273506E+01
 9.5784807E+00  6.7020981E+01
 9.5978899E+00  6.6288902E+01
 9.6172991E+00  6.5673241E+01
 9.6367092E+00  6.5676117E+01
 9.6561184E+00  6.5721390E+01
 9.6755276E+00  6.5333618E+01
 9.6949368E+00  6.4802452E+01
 9.7143459E+00  6.4785789E+01
 9.7337551E+00  6.4745499E+01
 9.7531643E+00  6.4763695E+01
 9.7725735E+00  6.4570259E+01
 9.7919827E+00  6.4063873E+01
 9.8113918E+00  6.4089050E+01
 9.8308020E+00  6.4234711E+01
 9.8502111E+00  6.4220558E+01
 9.8696203E+00  6.3912815E+01
 9.8890295E+00  6.3454323E+01
 9.9084387E+00  6.3212303E+01
 9.9278479E+00  6.3146858E+01
 9.9472570E+00  6.2994534E+01
 9.9666662E+00  6.2838131E+01
 9.9860754E+00  6.2792389E+01
 1.0005486E+01  6.2676147E+01
 1.0024895E+01  6.2549389E+01
 1.0044304E+01  6.2512165E+01
 1.0063713E+01  6.2614265E+01
 1.0083122E+01  6.2736774E+01
 1.0102531E+01  6.2551422E+01
 1.0121941E+01  6.2364300E+01
 1.0141350E+01  6.2347427E+01
 1.0160759E+01  6.2332424E+01
 1.0180169E+01  6.2233025E+01
 1.0199578E+01  6.2138058E+01
 1.0218987E+01  6.2051102E+01
 1.0238397E+01  6.2300583E+01
 1.0257806E+01  6.2520172E+01
 1.0277215E+01  6.2451832E+01
 1.0296624E+01  6.2190750E+01
 1.0316033E+01  6.2267879E+01
 1.0335443E+01  6.2511974E+01
 1.0354852E+01  6.2806915E+01
 1.0374262E+01  6.3260063E+01
 1.0393671E+01  6.3900448E+01
 1.0413080E+01  6.5134155E+01
 1.0432489E+01  6.7523956E+01
 1.0451899E+01  7.1166862E+01
 1.0471308E+01  7.4082138E+01
 1.0490717E+01  7.4663155E+01
 1.0510126E+01  7.2467133E+01
 1.0529535E+01  6.8963211E+01
 1.0548945E+01  6.5991531E+01
 1.0568355E+01  6.4214813E+01
 1.0587764E+01  6.3282749E+01
 1.0607173E+01  6.3100533E+01
 1.0626582E+01  6.2932514E+01
 1.0645991E+01  6.2398357E+01
 1.0665401E+01  6.1738838E+01
 1.0684810E+01  6.1540382E+01
 1.0704219E+01  6.2066628E+01
 1.0723629E+01  6.2212593E+01
 1.0743038E+01  6.2130688E+01
 1.0762447E+01  6.2016678E+01
 1.0781857E+01  6.1841663E+01
 1.0801266E+01  6.1773773E+01
 1.0820675E+01  6.1833286E+01
 1.0840084E+01  6.1876194E+01
 1.0859493E+01  6.1957672E+01
 1.0878902E+01  6.2083317E+01
 1.0898313E+01  6.2210819E+01
 1.0917722E+01  6.2519157E+01
 1.0937131E+01  6.2522991E+01
 1.0956540E+01  6.2177116E+01
 1.0975949E+01  6.1984303E+01
 1.0995358E+01  6.2004688E+01
 1.1014768E+01  6.2020947E+01
 1.1034177E+01  6.2045956E+01
 1.1053586E+01  6.2107975E+01
 1.1072995E+01  6.2039856E+01
 1.1092405E+01  6.2047989E+01
 1.1111814E+01  6.2195900E+01
 1.1131224E+01  6.2237350E+01
 1.1150633E+01  6.2319393E+01
 1.1170042E+01  6.2295971E+01
 1.1189451E+01  6.2150883E+01
 1.1208860E+01  6.2190224E+01
 1.1228270E+01  6.2226444E+01
 1.1247679E+01  6.2160202E+01
 1.1267089E+01  6.2153065E+01
 1.1286498E+01  6.2086323E+01
 1.1305907E+01  6.2065277E+01
 1.1325316E+01  6.2219772E+01
 1.1344726E+01  6.2243130E+01
 1.1364135E+01  6.2315041E+01
 1.1383544E+01  6.2519592E+01
 1.1402953E+01  6.2833378E+01
 1.1422362E+01  6.2826466E+01
 1.1441772E+01  6.2716908E+01
 1.1461182E+01  6.2667267E+01
 1.1480591E+01  6.2800304E+01
 1.1500000E+01  6.2786251E+01
 1.1519409E+01  6.2917992E+01
 1.1538818E+01  6.3071461E+01
 1.1558228E+01  6.3174271E+01
 1.1577637E+01  6.3284988E+01
 1.1597046E+01  6.3462772E+01
 1.1616455E+01  6.3514355E+01
 1.1635865E+01  6.3681377E+01
 1.1655274E+01  6.3987095E+01
 1.1674684E+01  6.3960285E+01
 1.1694093E+01  6.3932373E+01
 1.1713502E+01  6.4124298E+01
 1.1732911E+01  6.4429008E+01
 1.1752320E+01  6.4768318E+01
 1.1771729E+01  6.5059868E+01
 1.1791139E+01  6.5466270E+01
 1.1810549E+01  6.6028549E+01
 1.1829958E+01  6.6870644E+01
 1.1849367E+01  6.7504700E+01
 1.1868776E+01  6.7888390E+01
 1.1888186E+01  6.8062378E+01
 1.1907595E+01  6.8639954E+01
 1.1927004E+01  6.9376892E+01
 1.1946413E+01  7.0462059E+01
 1.1965822E+01  7.1543755E+01
 1.1985232E+01  7.2948868E+01
 1.2004642E+01  7.4954338E+01
 1.2024051E+01  7.7066971E+01
 1.2043460E+01  7.9395599E+01
 1.2062869E+01  8.3083290E+01
 1.2082278E+01  8.8572121E+01
 1.2101687E+01  9.7401245E+01
 1.2121097E+01  1.1655556E+02
 1.2140506E+01  2.0042111E+02
 1.2159916E+01  9.3345758E+02
 1.2179325E+01  2.4610591E+03
 1.2198734E+01  3.5701750E+03
 1.2218143E+01  2.7652061E+03
 1.2237553E+01  1.1133826E+03
 1.2256962E+01  2.9641113E+02
 1.2276371E+01  1.3213258E+02
 1.2295780E+01  1.0316249E+02
 1.2315189E+01  9.1789803E+01
 1.2334599E+01  8.5099792E+01
 1.2354009E+01  8.0725479E+01
 1.2373418E+01  7.7666573E+01
 1.2392827E+01  7.5540176E+01
 1.2412236E+01  7.4395996E+01
 1.2431645E+01  7.3395279E+01
 1.2451055E+01  7.1504715E+01
 1.2470464E+01  7.0073105E+01
 1.2489873E+01  6.8847679E+01
 1.2509282E+01  6.7893028E+01
 1.2528692E+01  6.7172279E+01
 1.2548101E+01  6.6604393E+01
 1.2567511E+01  6.5816612E+01
 1.2586920E+01  6.5187233E+01
 1.2606329E+01  6.5025902E+01
 1.2625738E+01  6.4871346E+01
 1.2645147E+01  6.4519684E+01
 1.2664557E+01  6.3830570E+01
 1.2683966E+01  6.3245613E+01
 1.2703376E+01  6.3213284E+01
 1.2722785E+01  6.3199738E+01
 1.2742194E+01  6.2848808E+01
 1.2761603E+01  6.2635952E+01
 1.2781013E+01  6.2328876E+01
 1.2800422E+01  6.2065449E+01
 1.2819831E+01  6.1863445E+01
 1.2839240E+01  6.1834339E+01
 1.2858649E+01  6.1531654E+01
 1.2878059E+01  6.1324310E+01
 1.2897469E+01  6.1262531E+01
 1.2916878E+01  6.1410938E+01
 1.2936287E+01  6.1503819E+01
 1.2955696E+01  6.1438343E+01
 1.2975105E+01  6.1329834E+01
 1.2994514E+01  6.1155376E+01
 1.3013924E+01  6.1003635E+01
 1.3033333E+01  6.0935093E+01
 1.3052742E+01  6.0691586E+01
 1.3072152E+01  6.0486774E+01
 1.3091561E+01  6.0475674E+01
 1.3110970E+01  6.0534042E+01
 1.3130380E+01  6.0488216E+01
 1.3149789E+01  6.0674763E+01
 1.3169198E+01  6.0941883E+01
 1.3188607E+01  6.1095398E+01
 1.3208016E+01  6.1196522E+01
 1.3227426E+01  6.1017227E+01
 1.3246836E+01  6.0719547E+01
 1.3266245E+01  6.0557690E+01
 1.3285654E+01  6.0586506E+01
 1.3305063E+01  6.0660011E+01
 1.3324472E+01  6.0742119E+01
 1.3343882E+01  6.0845005E+01
 1.3363291E+01  6.0878777E+01
 1.3382700E+01  6.0721962E+01
 1.3402109E+01  6.0596897E+01
 1.3421519E+01  6.0685593E+01
 1.3440928E+01  6.0539177E+01
 1.3460338E+01  6.0601570E+01
 1.3479747E+01  6.0905659E+01
 1.3499156E+01  6.0999916E+01
 1.3518565E+01  6.0613739E+01
 1.3537974E+01  6.0548782E+01
 1.3557384E+01  6.0753742E+01
 1.3576793E+01  6.0818115E+01
 1.3596202E+01  6.0838177E+01
 1.3615612E+01  6.0946903E+01
 1.3635021E+01  6.1045578E+01
 1.3654430E+01  6.1162975E+01
 1.3673840E+01  6.1250828E+01
 1.3693249E+01  6.1343960E+01
 1.3712658E+01  6.1578667E+01
 1.3732067E+01  6.1575710E+01
 1.3751476E+01  6.1630585E+01
 1.3770885E+01  6.1868095E+01
 1.3790296E+01  6.2119896E+01
 1.3809705E+01  6.2277313E+01
 1.3829114E+01  6.2436508E+01
 1.3848523E+01  6.2642056E+01
 1.3867932E+01  6.2873455E+01
 1.3887341E+01  6.3015053E+01
 1.3906751E+01  6.3381462E+01
 1.3926160E+01  6.3854450E+01
 1.3945569E+01  6.4135559E+01
 1.3964979E+01  6.4364052E+01
 1.3984388E+01  6.4874565E+01
 1.4003798E+01  6.5400764E+01
 1.4023207E+01  6.6101662E+01
 1.4042616E+01  6.7019112E+01
 1.4062025E+01  6.7956436E+01
 1.4081434E+01  6.9130882E+01
 1.4100843E+01  7.0450737E+01
 1.4120253E+01  7.1793770E+01
 1.4139663E+01  7.3802315E+01
 1.4159072E+01  7.6600403E+01
 1.4178481E+01  7.9839203E+01
 1.4197890E+01  8.4447281E+01
 1.4217299E+01  9.2912041E+01
 1.4236709E+01  1.1078890E+02
 1.4256118E+01  2.0172731E+02
 1.4275527E+01  7.2379840E+02
 1.4294936E+01  2.1719473E+03
 1.4314345E+01  3.1415640E+03
 1.4333755E+01  2.4690881E+03
 1.4353165E+01  1.0563026E+03
 1.4372574E+01  2.8959198E+02
 1.4391983E+01  1.2558867E+02
 1.4411392E+01  9.8392250E+01
 1.4430801E+01  8.8346031E+01
 1.4450211E+01  8.2551468E+01
 1.4469620E+01  7.8602341E+01
 1.4489029E+01  7.5658073E+01
 1.4508439E+01  7.3399315E+01
 1.4527848E+01  7.1742584E+01
 1.4547257E+01  7.0461906E+01
 1.4566667E+01  6.9382675E+01
 1.4586076E+01  6.8321892E+01
 1.4605485E+01  6.7437325E+01
 1.4624894E+01  6.6834412E+01
 1.4644303E+01  6.6480377E+01
 1.4663713E+01  6.6055702E+01
 1.4683123E+01  6.5866882E+01
 1.4702532E+01  6.5723518E+01
 1.4721941E+01  6.5462502E+01
 1.4741350E+01  6.5444160E+01
 1.4760759E+01  6.5678688E+01
 1.4780169E+01  6.6229706E+01
 1.4799578E+01  6.7224487E+01
 1.4818987E+01  6.8655434E+01
 1.4838396E+01  7.0167366E+01
 1.4857805E+01  7.1716484E+01
 1.4877215E+01  7.4688622E+01
 1.4896625E+01  9.4432442E+01
 1.4916034E+01  2.0021349E+02
 1.4935443E+01  4.4779080E+02
 1.4954852E+01  5.7880396E+02
 1.4974261E+01  4.3098383E+02
 1.4993670E+01  2.1954721E+02
 1.5013080E+01  9.7244385E+01
 1.5032489E+01  7.2464172E+01
 1.5051899E+01  6.7264687E+01
 1.5071308E+01  6.5310043E+01
 1.5090717E+01  6.4291443E+01
 1.5110126E+01  6.3605709E+01
 1.5129536E+01  6.2966969E+01
 1.5148945E+01  6.2616276E+01
 1.5168354E+01  6.2428761E+01
 1.5187763E+01  6.2245888E+01
 1.5207172E+01  6.1810139E+01
 1.5226583E+01  6.1580410E+01
 1.5245992E+01  6.1493122E+01
 1.5265401E+01  6.1406258E+01
 1.5284810E+01  6.1074875E+01
 1.5304219E+01  6.0638947E+01
 1.5323628E+01  6.0497463E+01
 1.5343038E+01  6.0430103E+01
 1.5362447E+01  6.0431068E+01
 1.5381856E+01  6.0416424E+01
 1.5401266E+01  6.0511139E+01
 1.5420675E+01  6.0609070E+01
 1.5440084E+01  6.0442520E+01
 1.5459494E+01  6.0179398E+01
 1.5478903E+01  6.0086506E+01
 1.5498312E+01  6.0112980E+01
 1.5517721E+01  6.0127796E+01
 1.5537130E+01  6.0147903E+01
 1.5556540E+01  6.0105961E+01
 1.5575949E+01  6.0012119E+01
 1.5595359E+01  5.9941021E+01
 1.5614768E+01  5.9973331E+01
 1.5634177E+01  5.9917061E+01
 1.5653586E+01  5.9683212E+01
 1.5672996E+01  5.9629265E+01
 1.5692405E+01  5.9601929E+01
 1.5711814E+01  5.9669708E+01
 1.5731223E+01  5.9714981E+01
 1.5750632E+01  5.9609253E+01
 1.5770042E+01  5.9621906E+01
 1.5789452E+01  5.9998463E+01
 1.5808861E+01  6.0179413E+01
 1.5828270E+01  5.9826843E+01
 1.5847679E+01  5.9516644E+01
 1.5867088E+01  5.9626869E+01
 1.5886497E+01  5.9840595E+01
 1.5905907E+01  5.9968216E+01
 1.5925316E+01  5.9964680E+01
 1.5944726E+01  5.9824242E+01
 1.5964135E+01  5.9692608E+01
 1.5983544E+01  5.9678078E+01
 1.6002953E+01  5.9805962E+01
 1.6022362E+01  5.9921818E+01
 1.6041773E+01  5.9684132E+01
 1.6061182E+01  5.9491520E+01
 1.6080591E+01  5.9627716E+01
 1.6100000E+01  5.9718773E+01
 1.6119410E+01  5.9825439E+01
 1.6138819E+01  5.9811657E+01
 1.6158228E+01  5.9825729E+01
 1.6177637E+01  5.9831020E+01
 1.6197046E+01  5.9796314E+01
 1.6216455E+01  5.9742981E+01
 1.6235865E+01  5.9736500E+01
 1.6255274E+01  5.9790585E+01
 1.6274683E+01  5.9883236E+01
 1.6294092E+01  6.0075359E+01
 1.6313501E+01  6.0162357E+01
 1.6332911E+01  6.0047352E+01
 1.6352320E+01  5.9930279E+01
 1.6371729E+01  5.9945972E+01
 1.6391140E+01  5.9991150E+01
 1.6410549E+01  5.9943260E+01
 1.6429958E+01  5.9953442E+01
 1.6449368E+01  5.9941563E+01
 1.6468777E+01  5.9911327E+01
 1.6488186E+01  5.9943123E+01
 1.6507595E+01  5.9889450E+01
 1.6527004E+01  5.9788803E+01
 1.6546413E+01  5.9802448E+01
 1.6565823E+01  5.9837658E+01
 1.6585232E+01  5.9768211E+01
 1.6604641E+01  5.9925804E+01
 1.6624050E+01  6.0223045E+01
 1.6643459E+01  6.0356464E+01
 1.6662868E+01  6.0261734E+01
 1.6682278E+01  6.0140152E+01
 1.6701687E+01  6.0174026E+01
 1.6721096E+01  6.0244740E+01
 1.6740505E+01  6.0379932E+01
 1.6759916E+01  6.0537445E+01
 1.6779325E+01  6.0486023E+01
 1.6798735E+01  6.0441948E+01
 1.6818144E+01  6.0569836E+01
 1.6837553E+01  6.0714237E+01
 1.6856962E+01  6.0965935E+01
 1.6876371E+01  6.0960323E+01
 1.6895781E+01  6.1039616E+01
 1.6915190E+01  6.1140518E+01
 1.6934599E+01  6.1149109E+01
 1.6954008E+01  6.1220379E+01
 1.6973417E+01  6.1482349E+01
 1.6992826E+01  6.1704292E+01
 1.7012236E+01  6.1905991E+01
 1.7031645E+01  6.2050755E+01
 1.7051054E+01  6.2199718E+01
 1.7070463E+01  6.2432133E+01
 1.7089872E+01  6.2884319E+01
 1.7109282E+01  6.3436749E+01
 1.7128693E+01  6.3746391E+01
 1.7148102E+01  6.4205757E+01
 1.7167511E+01  6.5209274E+01
 1.7186920E+01  6.7073349E+01
 1.7206329E+01  7.1308113E+01
 1.7225739E+01  9.1857948E+01
 1.7245148E+01  1.9155490E+02
 1.7264557E+01  4.6792569E+02
 1.7283966E+01  6.3293219E+02
 1.7303375E+01  4.9645218E+02
 1.7322784E+01  2.5285898E+02
 1.7342194E+01  1.0315060E+02
 1.7361603E+01  7.3563980E+01
 1.7381012E+01  6.8494820E+01
 1.7400421E+01  6.6623817E+01
 1.7419830E+01  6.5668816E+01
 1.7439240E+01  6.4893532E+01
 1.7458649E+01  6.4365410E+01
 1.7478060E+01  6.3951935E+01
 1.7497469E+01  6.3276962E+01
 1.7516878E+01  6.2763371E+01
 1.7536287E+01  6.2531452E+01
 1.7555696E+01  6.2389622E+01
 1.7575106E+01  6.2330109E+01
 1.7594515E+01  6.2180450E+01
 1.7613924E+01  6.2057270E+01
 1.7633333E+01  6.1788673E+01
 1.7652742E+01  6.1573814E+01
 1.7672152E+01  6.1462296E+01
 1.7691561E+01  6.1397270E+01
 1.7710970E+01  6.1490189E+01
 1.7730379E+01  6.1369614E+01
 1.7749788E+01  6.1236145E+01
 1.7769197E+01  6.1292431E+01
 1.7788607E+01  6.1336132E+01
 1.7808016E+01  6.1382713E+01
 1.7827425E+01  6.1356270E+01
 1.7846836E+01  6.1396706E+01
 1.7866245E+01  6.1409283E+01
 1.7885654E+01  6.1433929E+01
 1.7905064E+01  6.1490734E+01
 1.7924473E+01  6.1624252E+01
 1.7943882E+01  6.1690205E+01
 1.7963291E+01  6.1810406E+01
 1.7982700E+01  6.1898254E+01
 1.8002110E+01  6.1788219E+01
 1.8021519E+01  6.1860710E+01
 1.8040928E+01  6.2054420E+01
 1.8060337E+01  6.2432140E+01
 1.8079746E+01  6.2697571E+01
 1.8099155E+01  6.2991096E+01
 1.8118565E+01  6.3636772E+01
 1.8137974E+01  6.4464340E+01
 1.8157383E+01  6.5291794E+01
 1.8176792E+01  6.6351288E+01
 1.8196203E+01  6.7317726E+01
 1.8215612E+01  6.7428101E+01
 1.8235022E+01  6.6999092E+01
 1.8254431E+01  6.6333488E+01
 1.8273840E+01  6.5518715E+01
 1.8293249E+01  6.4626755E+01
 1.8312658E+01  6.3992836E+01
 1.8332067E+01  6.3692459E+01
 1.8351477E+01  6.3648266E+01
 1.8370886E+01  6.3667152E+01
 1.8390295E+01  6.3629299E+01
 1.8409704E+01  6.3650589E+01
 1.8429113E+01  6.3688480E+01
 1.8448523E+01  6.3818443E+01
 1.8467932E+01  6.4173195E+01
 1.8487341E+01  6.4565811E+01
 1.8506750E+01  6.4706299E+01
 1.8526159E+01  6.4894508E+01
 1.8545568E+01  6.5257027E+01
 1.8564980E+01  6.5473869E+01
 1.8584389E+01  6.5689240E+01
 1.8603798E+01  6.6408188E+01
 1.8623207E+01  6.7001404E+01
 1.8642616E+01  6.7435837E+01
 1.8662025E+01  6.8195282E+01
 1.8681435E+01  6.9348732E+01
 1.8700844E+01  7.0697891E+01
 1.8720253E+01  7.2750870E+01
 1.8739662E+01  7.5858948E+01
 1.8759071E+01  8.1529419E+01
 1.8778481E+01  9.7797493E+01
 1.8797890E+01  2.0229536E+02
 1.8817299E+01  6.1785370E+02
 1.8836708E+01  1.2275498E+03
 1.8856117E+01  1.3675519E+03
 1.8875526E+01  8.4824182E+02
 1.8894936E+01  3.2316885E+02
 1.8914347E+01  1.2417077E+02
 1.8933756E+01  8.9298157E+01
 1.8953165E+01  8.0343498E+01
 1.8972574E+01  7.6334167E+01
 1.8991983E+01  7.3975639E+01
 1.9011393E+01  7.2206497E+01
 1.9030802E+01  7.0922531E+01
 1.9050211E+01  7.0134163E+01
 1.9069620E+01  6.9578026E+01
 1.9089029E+01  6.9030197E+01
 1.9108438E+01  6.8684280E+01
 1.9127848E+01  6.8687569E+01
 1.9147257E+01  6.8732719E+01
 1.9166666E+01  6.9019859E+01
 1.9186075E+01  6.9536591E+01
 1.9205484E+01  7.0305420E+01
 1.9224894E+01  7.1546089E+01
 1.9244303E+01  7.3704712E+01
 1.9263712E+01  7.8664200E+01
 1.9283123E+01  1.0167825E+02
 1.9302532E+01  2.3611177E+02
 1.9321941E+01  5.6622229E+02
 1.9341351E+01  8.6786493E+02
 1.9360760E+01  7.4219220E+02
 1.9380169E+01  3.5861874E+02
 1.9399578E+01  1.4188153E+02
 1.9418987E+01  8.5232407E+01
 1.9438396E+01  7.4914238E+01
 1.9457806E+01  7.1228081E+01
 1.9477215E+01  6.9104027E+01
 1.9496624E+01  6.7735588E+01
 1.9516033E+01  6.6675751E+01
 1.9535442E+01  6.5920486E+01
 1.9554852E+01  6.5092735E+01
 1.9574261E+01  6.4268257E+01
 1.9593670E+01  6.3891167E+01
 1.9613079E+01  6.3569981E+01
 1.9632490E+01  6.3387772E+01
 1.9651899E+01  6.3084843E+01
 1.9671309E+01  6.2623226E+01
 1.9690718E+01  6.2387756E+01
 1.9710127E+01  6.2154537E+01
 1.9729536E+01  6.1917152E+01
 1.9748945E+01  6.1672993E+01
 1.9768354E+01  6.1403759E+01
 1.9787764E+01  6.1197056E+01
 1.9807173E+01  6.1034889E+01
 1.9826582E+01  6.0749279E+01
 1.9845991E+01  6.0631264E+01
 1.9865400E+01  6.0613602E+01
 1.9884809E+01  6.0418621E+01
 1.9904219E+01  6.0049465E+01
 1.9923628E+01  5.9634472E+01
 1.9943037E+01  5.9650299E+01
 1.9962446E+01  5.9806133E+01
 1.9981855E+01  5.9988369E+01
 2.0001266E+01  5.9938435E+01
 2.0020676E+01  5.9416622E+01
 2.0040085E+01  5.8918171E+01
 2.0059494E+01  5.8679398E+01
 2.0078903E+01  5.8494877E+01
 2.0098312E+01  5.8461872E+01
 2.0117722E+01  5.8603489E+01
 2.0137131E+01  5.8394020E+01
 2.0156540E+01  5.8201611E+01
 2.0175949E+01  5.8172764E+01
 2.0195358E+01  5.8301739E+01
 2.0214767E+01  5.8153538E+01
 2.0234177E+01  5.7837399E+01
 2.0253586E+01  5.7740589E+01
 2.0272995E+01  5.7532520E+01
 2.0292404E+01  5.7217884E+01
 2.0311813E+01  5.7297447E+01
 2.0331223E+01  5.7510818E+01
 2.0350632E+01  5.7435757E+01
 2.0370043E+01  5.7154907E+01
 2.0389452E+01  5.6927326E+01
 2.0408861E+01  5.6831284E+01
 2.0428270E+01  5.6730965E+01
 2.0447680E+01  5.6612686E+01
 2.0467089E+01  5.6653679E+01
 2.0486498E+01  5.6664040E+01
 2.0505907E+01  5.6550266E+01
 2.0525316E+01  5.6526875E+01
 2.0544725E+01  5.6511021E+01
 2.0564135E+01  5.6444466E+01
 2.0583544E+01  5.6352158E+01
 2.0602953E+01  5.6061417E+01
 2.0622362E+01  5.5996922E+01
 2.0641771E+01  5.6059273E+01
 2.0661180E+01  5.6011333E+01
 2.0680590E+01  5.6012928E+01
 2.0699999E+01  5.6062141E+01
 2.0719410E+01  5.6063232E+01
 2.0738819E+01  5.5966888E+01
 2.0758228E+01  5.6066479E+01
 2.0777637E+01  5.6124012E+01
 2.0797047E+01  5.6022221E+01
 2.0816456E+01  5.6120010E+01
 2.0835865E+01  5.6431080E+01
 2.0855274E+01  5.6526257E+01
 2.0874683E+01  5.6640671E+01
 2.0894093E+01  5.6807110E+01
 2.0913502E+01  5.6948330E+01
 2.0932911E+01  5.7303581E+01
 2.0952320E+01  5.7890072E+01
 2.0971729E+01  5.8490112E+01
 2.0991138E+01  5.8912689E+01
 2.1010548E+01  5.9439526E+01
 2.1029957E+01  6.0508907E+01
 2.1049366E+01  6.1688839E+01
 2.1068775E+01  6.2955059E+01
 2.1088186E+01  6.4681938E+01
 2.1107595E+01  6.7588226E+01
 2.1127005E+01  7.3853882E+01
 2.1146414E+01  9.9827156E+01
 2.1165823E+01  2.3533244E+02
 2.1185232E+01  6.5342078E+02
 2.1204641E+01  1.1110787E+03
 2.1224051E+01  1.0334668E+03
 2.1243460E+01  5.5176233E+02
 2.1262869E+01  2.0004402E+02
 2.1282278E+01  9.2798523E+01
 2.1301687E+01  7.3537346E+01
 2.1321096E+01  6.7324280E+01
 2.1340506E+01  6.4001495E+01
 2.1359915E+01  6.1779488E+01
 2.1379324E+01  6.0468834E+01
 2.1398733E+01  5.9713779E+01
 2.1418142E+01  5.8611313E+01
 2.1437553E+01  5.7693817E+01
 2.1456963E+01  5.7026882E+01
 2.1476372E+01  5.6480301E+01
 2.1495781E+01  5.6210911E+01
 2.1515190E+01  5.5792679E+01
 2.1534599E+01  5.5267609E+01
 2.1554008E+01  5.4918388E+01
 2.1573418E+01  5.4658924E+01
 2.1592827E+01  5.4392475E+01
 2.1612236E+01  5.4192280E+01
 2.1631645E+01  5.4047325E+01
 2.1651054E+01  5.4064896E+01
 2.1670464E+01  5.3810539E+01
 2.1689873E+01  5.3671234E+01
 2.1709282E+01  5.3750740E+01
 2.1728691E+01  5.3632584E+01
 2.1748100E+01  5.3428268E+01
 2.1767509E+01  5.3295940E+01
 2.1786919E+01  5.3285774E+01
 2.1806330E+01  5.3277954E+01
 2.1825739E+01  5.3014744E+01
 2.1845148E+01  5.2766033E+01
 2.1864557E+01  5.2918026E+01
 2.1883966E+01  5.3152084E+01
 2.1903376E+01  5.2733982E+01
 2.1922785E+01  5.2418728E+01
 2.1942194E+01  5.2648582E+01
 2.1961603E+01  5.2955856E+01
 2.1981012E+01  5.3069584E+01
 2.2000422E+01  5.3015701E+01
 2.2019831E+01  5.2995609E+01
 2.2039240E+01  5.2936668E+01
 2.2058649E+01  5.2908276E+01
 2.2078058E+01  5.2901237E+01
 2.2097467E+01  5.2958347E+01
 2.2116877E+01  5.3319344E+01
 2.2136286E+01  5.3665619E+01
 2.2155697E+01  5.3537827E+01
 2.2175106E+01  5.3398319E+01
 2.2194515E+01  5.3377842E+01
 2.2213924E+01  5.3507908E+01
 2.2233334E+01  5.3805500E+01
 2.2252743E+01  5.4379547E+01
 2.2272152E+01  5.4772118E+01
 2.2291561E+01  5.5034733E+01
 2.2310970E+01  5.5475975E+01
 2.2330379E+01  5.6268661E+01
 2.2349789E+01  5.7163029E+01
 2.2369198E+01  5.8176147E+01
 2.2388607E+01  6.0000648E+01
 2.2408016E+01  6.2668514E+01
 2.2427425E+01  6.7739494E+01
 2.2446835E+01  8.5255707E+01
 2.2466244E+01  1.9948540E+02
 2.2485653E+01  5.8380438E+02
 2.2505062E+01  1.0460167E+03
 2.2524473E+01  1.0747159E+03
 2.2543882E+01  6.2303259E+02
 2.2563292E+01  2.1231978E+02
 2.2582701E+01  8.8988647E+01
 2.2602110E+01  6.9726997E+01
 2.2621519E+01  6.4083725E+01
 2.2640928E+01  6.1008705E+01
 2.2660337E+01  5.9030769E+01
 2.2679747E+01  5.7498974E+01
 2.2699156E+01  5.6557858E+01
 2.2718565E+01  5.6049202E+01
 2.2737974E+01  5.5115635E+01
 2.2757383E+01  5.4150040E+01
 2.2776793E+01  5.3913826E+01
 2.2796202E+01  5.3827702E+01
 2.2815611E+01  5.3674816E+01
 2.2835020E+01  5.3398994E+01
 2.2854429E+01  5.3035667E+01
 2.2873840E+01  5.2894592E+01
 2.2893250E+01  5.2652519E+01
 2.2912659E+01  5.2325802E+01
 2.2932068E+01  5.1919308E+01
 2.2951477E+01  5.1664330E+01
 2.2970886E+01  5.1616493E+01
 2.2990295E+01  5.1361000E+01
 2.3009705E+01  5.1338860E+01
 2.3029114E+01  5.1308296E+01
 2.3048523E+01  5.1217239E+01
 2.3067932E+01  5.1425404E+01
 2.3087341E+01  5.1385323E+01
 2.3106750E+01  5.1078075E+01
 2.3126160E+01  5.0836884E+01
 2.3145569E+01  5.0814556E+01
 2.3164978E+01  5.0895134E+01
 2.3184387E+01  5.0673069E+01
 2.3203796E+01  5.0787544E+01
 2.3223206E+01  5.0908894E+01
 2.3242617E+01  5.0731701E+01
 2.3262026E+01  5.0680981E+01
 2.3281435E+01  5.0474503E+01
 2.3300844E+01  5.0633934E+01
 2.3320253E+01  5.0694447E+01
 2.3339663E+01  5.0445099E+01
 2.3359072E+01  5.0464222E+01
 2.3378481E+01  5.0474018E+01
 2.3397890E+01  5.0386040E+01
 2.3417299E+01  5.0563686E+01
 2.3436708E+01  5.0901222E+01
 2.3456118E+01  5.1009239E+01
 2.3475527E+01  5.1139297E+01
 2.3494936E+01  5.1470425E+01
 2.3514345E+01  5.1892647E+01
 2.3533754E+01  5.2126595E+01
 2.3553164E+01  5.2228146E+01
 2.3572573E+01  5.2253376E+01
 2.3591982E+01  5.2087498E+01
 2.3611393E+01  5.2002098E+01
 2.3630802E+01  5.2103199E+01
 2.3650211E+01  5.1653950E+01
 2.3669621E+01  5.1017975E+01
 2.3689030E+01  5.0897552E+01
 2.3708439E+01  5.0761806E+01
 2.3727848E+01  5.0733608E+01
 2.3747257E+01  5.0625721E+01
 2.3766666E+01  4.9993813E+01
 2.3786076E+01  5.0015999E+01
 2.3805485E+01  5.0254070E+01
 2.3824894E+01  5.0096760E+01
 2.3844303E+01  5.0115650E+01
 2.3863712E+01  5.0527500E+01
 2.3883121E+01  5.0695572E+01
 2.3902531E+01  5.0537468E+01
 2.3921940E+01  5.0652542E+01
 2.3941349E+01  5.0376339E+01
 2.3960760E+01  5.0249435E+01
 2.3980169E+01  5.0166531E+01
 2.3999578E+01  5.0254318E+01
 2.4018988E+01  5.0504498E+01
 2.4038397E+01  5.0600960E+01
 2.4057806E+01  5.0798519E+01
 2.4077215E+01  5.0684155E+01
 2.4096624E+01  5.0376034E+01
 2.4116034E+01  5.0504059E+01
 2.4135443E+01  5.0962669E+01
 2.4154852E+01  5.0987610E+01
 2.4174261E+01  5.0696697E+01
 2.4193670E+01  5.0841274E+01
 2.4213079E+01  5.0917351E+01
 2.4232489E+01  5.0779190E+01
 2.4251898E+01  5.0974888E+01
 2.4271307E+01  5.0939838E+01
 2.4290716E+01  5.1209927E+01
 2.4310125E+01  5.1753860E+01
 2.4329536E+01  5.2125462E+01
 2.4348946E+01  5.2232674E+01
 2.4368355E+01  5.2266846E+01
 2.4387764E+01  5.2808517E+01
 2.4407173E+01  5.3242249E+01
 2.4426582E+01  5.3548759E+01
 2.4445992E+01  5.5037590E+01
 2.4465401E+01  5.9120998E+01
 2.4484810E+01  7.5235977E+01
 2.4504219E+01  1.4985124E+02
 2.4523628E+01  2.8667294E+02
 2.4543037E+01  3.4943826E+02
 2.4562447E+01  2.6094650E+02
 2.4581856E+01  1.3624545E+02
 2.4601265E+01  7.4552452E+01
 2.4620674E+01  5.9863995E+01
 2.4640083E+01  5.6225880E+01
 2.4659492E+01  5.5091007E+01
 2.4678904E+01  5.4049980E+01
 2.4698313E+01  5.3198261E+01
 2.4717722E+01  5.2359493E+01
 2.4737131E+01  5.1885490E+01
 2.4756540E+01  5.2392948E+01
 2.4775949E+01  5.2434853E+01
 2.4795359E+01  5.2318588E+01
 2.4814768E+01  5.2386429E+01
 2.4834177E+01  5.1908180E+01
 2.4853586E+01  5.1674797E+01
 2.4872995E+01  5.1782059E+01
 2.4892405E+01  5.1614807E+01
 2.4911814E+01  5.1776340E+01
 2.4931223E+01  5.2004852E+01
 2.4950632E+01  5.2149807E+01
 2.4970041E+01  5.2401917E+01
 2.4989450E+01  5.2140484E+01
 2.5008860E+01  5.1622272E+01
 2.5028269E+01  5.1443680E+01
 2.5047680E+01  5.1329460E+01
 2.5067089E+01  5.0982906E+01
 2.5086498E+01  5.0996616E+01
 2.5105907E+01  5.1703297E+01
 2.5125317E+01  5.1752579E+01
 2.5144726E+01  5.1420532E+01
 2.5164135E+01  5.1383591E+01
 2.5183544E+01  5.1499493E+01
 2.5202953E+01  5.2028103E+01
 2.5222363E+01  5.2096684E+01
 2.5241772E+01  5.2035286E+01
 2.5261181E+01  5.2340527E+01
 2.5280590E+01  5.2684784E+01
 2.5299999E+01  5.2358490E+01
 2.5319408E+01  5.2281933E+01
 2.5338818E+01  5.2788330E+01
 2.5358227E+01  5.3196213E+01
 2.5377636E+01  5.3440971E+01
 2.5397047E+01  5.3517738E+01
 2.5416456E+01  5.3627052E+01
 2.5435865E+01  5.3487221E+01
 2.5455275E+01  5.3545265E+01
 2.5474684E+01  5.3755741E+01
 2.5494093E+01  5.4880894E+01
 2.5513502E+01  5.6769947E+01
 2.5532911E+01  5.8115520E+01
 2.5552320E+01  5.9445961E+01
 2.5571730E+01  6.1204800E+01
 2.5591139E+01  6.5525780E+01
 2.5610548E+01  7.7392929E+01
 2.5629957E+01  1.3779236E+02
 2.5649366E+01  3.7595215E+02
 2.5668776E+01  7.7990143E+02
 2.5688185E+01  9.3499188E+02
 2.5707594E+01  6.2786615E+02
 2.5727003E+01  2.5134586E+02
 2.5746412E+01  1.0481564E+02
 2.5765823E+01  7.4149612E+01
 2.5785233E+01  6.5859467E+01
 2.5804642E+01  6.2721233E+01
 2.5824051E+01  6.1213886E+01
 2.5843460E+01  5.9835320E+01
 2.5862869E+01  5.8346603E+01
 2.5882278E+01  5.8619473E+01
 2.5901688E+01  5.9441822E+01
 2.5921097E+01  5.9233376E+01
 2.5940506E+01  5.9277134E+01
 2.5959915E+01  6.0122398E+01
 2.5979324E+01  6.6423874E+01
 2.5998734E+01  9.6318497E+01
 2.6018143E+01  2.1494325E+02
 2.6037552E+01  4.3858014E+02
 2.6056961E+01  5.1002124E+02
 2.6076370E+01  3.2764496E+02
 2.6095779E+01  1.6189159E+02
 2.6115191E+01  8.3749062E+01
 2.6134600E+01  6.4942101E+01
 2.6154009E+01  6.0014297E+01
 2.6173418E+01  5.7864346E+01
 2.6192827E+01  5.6504448E+01
 2.6212236E+01  5.5055489E+01
 2.6231646E+01  5.4844963E+01
 2.6251055E+01  5.4251152E+01
 2.6270464E+01  5.4039444E+01
 2.6289873E+01  5.3812126E+01
 2.6309282E+01  5.2894978E+01
 2.6328691E+01  5.2312363E+01
 2.6348101E+01  5.2330410E+01
 2.6367510E+01  5.2159492E+01
 2.6386919E+01  5.2190037E+01
 2.6406328E+01  5.2566055E+01
 2.6425737E+01  5.1936642E+01
 2.6445147E+01  5.1570896E+01
 2.6464556E+01  5.1581593E+01
 2.6483967E+01  5.1033939E+01
 2.6503376E+01  5.1995464E+01
 2.6522785E+01  5.2488808E+01
 2.6542194E+01  5.1550526E+01
 2.6561604E+01  5.0308853E+01
 2.6581013E+01  5.0313038E+01
 2.6600422E+01  5.1683693E+01
 2.6619831E+01  5.1973667E+01
 2.6639240E+01  5.2571037E+01
 2.6658649E+01  5.2927238E+01
 2.6678059E+01  5.2970097E+01
 2.6697468E+01  5.3903683E+01
 2.6716877E+01  5.4380215E+01
 2.6736286E+01  5.3744072E+01
 2.6755695E+01  5.1656181E+01
 2.6775105E+01  5.0303089E+01
 2.6794514E+01  5.1432213E+01
