/Users/ross/GitHub/Dioptas/dioptas/tests/data/LaB6_40keV_MarCCD.chi
2th_deg

       2112
 1.7797940E+00  7.3731348E+02
 1.7895658E+00  7.5168689E+02
 1.7993376E+00  7.3589526E+02
 1.8091095E+00  7.3370715E+02
 1.8188813E+00  7.2509637E+02
 1.8286531E+00  7.3384888E+02
 1.8384250E+00  7.3520093E+02
 1.8481968E+00  7.3813989E+02
 1.8579686E+00  7.3978619E+02
 1.8677405E+00  7.4163135E+02
 1.8775123E+00  7.4456195E+02
 1.8872842E+00  7.4859283E+02
 1.8970560E+00  7.5343927E+02
 1.9068278E+00  7.5786554E+02
 1.9165997E+00  7.6135236E+02
 1.9263715E+00  7.6505444E+02
 1.9361433E+00  7.6949957E+02
 1.9459152E+00  7.7232617E+02
 1.9556870E+00  7.7244226E+02
 1.9654588E+00  7.7294110E+02
 1.9752307E+00  7.7199377E+02
 1.9850025E+00  7.7054590E+02
 1.9947744E+00  7.7060242E+02
 2.0045462E+00  7.7162781E+02
 2.0143180E+00  7.7311371E+02
 2.0240899E+00  7.7406549E+02
 2.0338617E+00  7.7467554E+02
 2.0436335E+00  7.7407660E+02
 2.0534054E+00  7.7434509E+02
 2.0631772E+00  7.7422833E+02
 2.0729490E+00  7.7427942E+02
 2.0827209E+00  7.7419952E+02
 2.0924927E+00  7.7509631E+02
 2.1022646E+00  7.7575128E+02
 2.1120364E+00  7.7585547E+02
 2.1218082E+00  7.7606750E+02
 2.1315801E+00  7.7639227E+02
 2.1413519E+00  7.7633362E+02
 2.1511237E+00  7.7671094E+02
 2.1608956E+00  7.7749017E+02
 2.1706674E+00  7.7795056E+02
 2.1804392E+00  7.7761169E+02
 2.1902111E+00  7.7853192E+02
 2.1999829E+00  7.7901776E+02
 2.2097548E+00  7.7978857E+02
 2.2195266E+00  7.8016089E+02
 2.2292984E+00  7.8026465E+02
 2.2390703E+00  7.8098700E+02
 2.2488421E+00  7.8154846E+02
 2.2586139E+00  7.8205884E+02
 2.2683858E+00  7.8134729E+02
 2.2781576E+00  7.8054523E+02
 2.2879294E+00  7.7879993E+02
 2.2977013E+00  7.7703082E+02
 2.3074731E+00  7.7543683E+02
 2.3172450E+00  7.7462738E+02
 2.3270168E+00  7.7348535E+02
 2.3367886E+00  7.7255151E+02
 2.3465605E+00  7.7173431E+02
 2.3563323E+00  7.7093750E+02
 2.3661041E+00  7.7054694E+02
 2.3758760E+00  7.7053076E+02
 2.3856478E+00  7.6970032E+02
 2.3954196E+00  7.6896448E+02
 2.4051915E+00  7.6893005E+02
 2.4149633E+00  7.6809351E+02
 2.4247352E+00  7.6761035E+02
 2.4345070E+00  7.6619482E+02
 2.4442788E+00  7.6571002E+02
 2.4540507E+00  7.6550073E+02
 2.4638225E+00  7.6562665E+02
 2.4735943E+00  7.6432690E+02
 2.4833662E+00  7.6387451E+02
 2.4931380E+00  7.6313159E+02
 2.5029098E+00  7.6243176E+02
 2.5126817E+00  7.6146539E+02
 2.5224535E+00  7.6067719E+02
 2.5322254E+00  7.5992841E+02
 2.5419972E+00  7.5895782E+02
 2.5517690E+00  7.5746735E+02
 2.5615409E+00  7.5685803E+02
 2.5713127E+00  7.5649255E+02
 2.5810845E+00  7.5544391E+02
 2.5908564E+00  7.5487445E+02
 2.6006282E+00  7.5389618E+02
 2.6104000E+00  7.5304382E+02
 2.6201719E+00  7.5190497E+02
 2.6299437E+00  7.5158643E+02
 2.6397156E+00  7.5021497E+02
 2.6494874E+00  7.4932251E+02
 2.6592592E+00  7.4742377E+02
 2.6690311E+00  7.4596240E+02
 2.6788029E+00  7.4433777E+02
 2.6885747E+00  7.4261108E+02
 2.6983466E+00  7.4111871E+02
 2.7081184E+00  7.4068268E+02
 2.7178902E+00  7.3942035E+02
 2.7276621E+00  7.3858813E+02
 2.7374339E+00  7.3659747E+02
 2.7472058E+00  7.3552094E+02
 2.7569776E+00  7.3386023E+02
 2.7667494E+00  7.3279083E+02
 2.7765213E+00  7.3141101E+02
 2.7862931E+00  7.3088300E+02
 2.7960649E+00  7.2959662E+02
 2.8058368E+00  7.2870380E+02
 2.8156086E+00  7.2693512E+02
 2.8253804E+00  7.2546173E+02
 2.8351523E+00  7.2312610E+02
 2.8449241E+00  7.2196710E+02
 2.8546960E+00  7.2126312E+02
 2.8644678E+00  7.2189069E+02
 2.8742396E+00  7.2126776E+02
 2.8840115E+00  7.2041943E+02
 2.8937833E+00  7.1894098E+02
 2.9035551E+00  7.1725049E+02
 2.9133270E+00  7.1503351E+02
 2.9230988E+00  7.1353192E+02
 2.9328706E+00  7.1242365E+02
 2.9426425E+00  7.1091205E+02
 2.9524143E+00  7.0985468E+02
 2.9621862E+00  7.0850629E+02
 2.9719580E+00  7.0729590E+02
 2.9817298E+00  7.0628131E+02
 2.9915017E+00  7.0555090E+02
 3.0012735E+00  7.0512836E+02
 3.0110453E+00  7.0460559E+02
 3.0208172E+00  7.0415179E+02
 3.0305890E+00  7.0387024E+02
 3.0403608E+00  7.0345392E+02
 3.0501327E+00  7.0242932E+02
 3.0599045E+00  7.0077478E+02
 3.0696763E+00  6.9952606E+02
 3.0794482E+00  6.9811792E+02
 3.0892200E+00  6.9740771E+02
 3.0989919E+00  6.9580774E+02
 3.1087637E+00  6.9468323E+02
 3.1185355E+00  6.9383667E+02
 3.1283074E+00  6.9339148E+02
 3.1380792E+00  6.9281903E+02
 3.1478510E+00  6.9154938E+02
 3.1576229E+00  6.9116010E+02
 3.1673947E+00  6.9082855E+02
 3.1771665E+00  6.8980316E+02
 3.1869384E+00  6.8836365E+02
 3.1967102E+00  6.8663116E+02
 3.2064821E+00  6.8480334E+02
 3.2162539E+00  6.8219940E+02
 3.2260257E+00  6.8035358E+02
 3.2357976E+00  6.7803723E+02
 3.2455694E+00  6.7685541E+02
 3.2553412E+00  6.7600702E+02
 3.2651131E+00  6.7577710E+02
 3.2748849E+00  6.7468671E+02
 3.2846567E+00  6.7318158E+02
 3.2944286E+00  6.7197516E+02
 3.3042004E+00  6.7084393E+02
 3.3139723E+00  6.6921716E+02
 3.3237441E+00  6.6757355E+02
 3.3335159E+00  6.6566364E+02
 3.3432878E+00  6.6535120E+02
 3.3530596E+00  6.6531976E+02
 3.3628314E+00  6.6527081E+02
 3.3726033E+00  6.6474518E+02
 3.3823751E+00  6.6397894E+02
 3.3921469E+00  6.6358722E+02
 3.4019188E+00  6.6293457E+02
 3.4116906E+00  6.6191882E+02
 3.4214625E+00  6.6081476E+02
 3.4312343E+00  6.5936218E+02
 3.4410061E+00  6.5824011E+02
 3.4507780E+00  6.5697906E+02
 3.4605498E+00  6.5665662E+02
 3.4703216E+00  6.5541705E+02
 3.4800935E+00  6.5426947E+02
 3.4898653E+00  6.5282336E+02
 3.4996371E+00  6.5178168E+02
 3.5094090E+00  6.5079730E+02
 3.5191808E+00  6.4955267E+02
 3.5289527E+00  6.4846973E+02
 3.5387245E+00  6.4725714E+02
 3.5484963E+00  6.4686011E+02
 3.5582682E+00  6.4646240E+02
 3.5680400E+00  6.4623273E+02
 3.5778118E+00  6.4534729E+02
 3.5875837E+00  6.4458691E+02
 3.5973555E+00  6.4388708E+02
 3.6071273E+00  6.4305255E+02
 3.6168992E+00  6.4232605E+02
 3.6266710E+00  6.4173804E+02
 3.6364429E+00  6.4140338E+02
 3.6462147E+00  6.4126318E+02
 3.6559865E+00  6.4084277E+02
 3.6657584E+00  6.3974548E+02
 3.6755302E+00  6.3846661E+02
 3.6853020E+00  6.3790247E+02
 3.6950739E+00  6.3707538E+02
 3.7048457E+00  6.3710834E+02
 3.7146175E+00  6.3687750E+02
 3.7243894E+00  6.3684796E+02
 3.7341612E+00  6.3707635E+02
 3.7439331E+00  6.3703796E+02
 3.7537049E+00  6.3598450E+02
 3.7634767E+00  6.3394855E+02
 3.7732486E+00  6.3227032E+02
 3.7830204E+00  6.3075153E+02
 3.7927922E+00  6.3003882E+02
 3.8025641E+00  6.3013446E+02
 3.8123359E+00  6.3012445E+02
 3.8221077E+00  6.2910956E+02
 3.8318796E+00  6.2901978E+02
 3.8416514E+00  6.2871930E+02
 3.8514233E+00  6.2799512E+02
 3.8611951E+00  6.2748297E+02
 3.8709669E+00  6.2705029E+02
 3.8807388E+00  6.2705963E+02
 3.8905106E+00  6.2643945E+02
 3.9002824E+00  6.2672961E+02
 3.9100543E+00  6.2643042E+02
 3.9198261E+00  6.2668762E+02
 3.9295979E+00  6.2645251E+02
 3.9393698E+00  6.2586865E+02
 3.9491416E+00  6.2484259E+02
 3.9589135E+00  6.2369318E+02
 3.9686853E+00  6.2330066E+02
 3.9784571E+00  6.2253192E+02
 3.9882290E+00  6.2251379E+02
 3.9980008E+00  6.2187854E+02
 4.0077726E+00  6.2189532E+02
 4.0175445E+00  6.2144672E+02
 4.0273163E+00  6.2108948E+02
 4.0370881E+00  6.2005902E+02
 4.0468600E+00  6.1956897E+02
 4.0566318E+00  6.1901416E+02
 4.0664037E+00  6.1863031E+02
 4.0761755E+00  6.1925653E+02
 4.0859473E+00  6.2035919E+02
 4.0957192E+00  6.2164001E+02
 4.1054910E+00  6.2273932E+02
 4.1152628E+00  6.2448431E+02
 4.1250347E+00  6.2693951E+02
 4.1348065E+00  6.3013373E+02
 4.1445783E+00  6.3359680E+02
 4.1543502E+00  6.3696301E+02
 4.1641220E+00  6.4093469E+02
 4.1738939E+00  6.4687067E+02
 4.1836657E+00  6.5543597E+02
 4.1934375E+00  6.6725446E+02
 4.2032094E+00  6.8528406E+02
 4.2129812E+00  7.1543671E+02
 4.2227530E+00  7.7283020E+02
 4.2325249E+00  8.6758478E+02
 4.2422967E+00  1.0831283E+03
 4.2520685E+00  1.3388848E+03
 4.2618404E+00  1.5740035E+03
 4.2716122E+00  1.6684203E+03
 4.2813841E+00  1.5999352E+03
 4.2911559E+00  1.4237972E+03
 4.3009277E+00  1.2062820E+03
 4.3106996E+00  9.9585358E+02
 4.3204714E+00  8.2683179E+02
 4.3302432E+00  7.3441467E+02
 4.3400151E+00  6.9089301E+02
 4.3497869E+00  6.6492029E+02
 4.3595587E+00  6.4704889E+02
 4.3693306E+00  6.3501880E+02
 4.3791024E+00  6.2576855E+02
 4.3888743E+00  6.1950769E+02
 4.3986461E+00  6.1491925E+02
 4.4084179E+00  6.1154285E+02
 4.4181898E+00  6.0875970E+02
 4.4279616E+00  6.0557056E+02
 4.4377334E+00  6.0316284E+02
 4.4475053E+00  6.0037750E+02
 4.4572771E+00  5.9848077E+02
 4.4670489E+00  5.9710437E+02
 4.4768208E+00  5.9632428E+02
 4.4865926E+00  5.9448962E+02
 4.4963645E+00  5.9302448E+02
 4.5061363E+00  5.9183972E+02
 4.5159081E+00  5.9114655E+02
 4.5256800E+00  5.8991534E+02
 4.5354518E+00  5.8863416E+02
 4.5452236E+00  5.8701312E+02
 4.5549955E+00  5.8540619E+02
 4.5647673E+00  5.8414417E+02
 4.5745391E+00  5.8318542E+02
 4.5843110E+00  5.8298358E+02
 4.5940828E+00  5.8272583E+02
 4.6038547E+00  5.8219635E+02
 4.6136265E+00  5.8122888E+02
 4.6233983E+00  5.8089825E+02
 4.6331702E+00  5.7994391E+02
 4.6429420E+00  5.7945868E+02
 4.6527138E+00  5.7866852E+02
 4.6624857E+00  5.7805139E+02
 4.6722575E+00  5.7780737E+02
 4.6820293E+00  5.7730835E+02
 4.6918012E+00  5.7690643E+02
 4.7015730E+00  5.7617023E+02
 4.7113449E+00  5.7547729E+02
 4.7211167E+00  5.7477466E+02
 4.7308885E+00  5.7367908E+02
 4.7406604E+00  5.7260199E+02
 4.7504322E+00  5.7180499E+02
 4.7602040E+00  5.7181653E+02
 4.7699759E+00  5.7152380E+02
 4.7797477E+00  5.7181732E+02
 4.7895195E+00  5.7137079E+02
 4.7992914E+00  5.7114246E+02
 4.8090632E+00  5.7064337E+02
 4.8188350E+00  5.7052356E+02
 4.8286069E+00  5.6994226E+02
 4.8383787E+00  5.6873071E+02
 4.8481506E+00  5.6767712E+02
 4.8579224E+00  5.6665393E+02
 4.8676942E+00  5.6646265E+02
 4.8774661E+00  5.6575952E+02
 4.8872379E+00  5.6561963E+02
 4.8970097E+00  5.6572595E+02
 4.9067816E+00  5.6550397E+02
 4.9165534E+00  5.6553632E+02
 4.9263252E+00  5.6511414E+02
 4.9360971E+00  5.6449396E+02
 4.9458689E+00  5.6352496E+02
 4.9556408E+00  5.6339307E+02
 4.9654126E+00  5.6247009E+02
 4.9751844E+00  5.6185181E+02
 4.9849563E+00  5.6063300E+02
 4.9947281E+00  5.6057056E+02
 5.0044999E+00  5.6028333E+02
 5.0142718E+00  5.6072626E+02
 5.0240436E+00  5.6006073E+02
 5.0338154E+00  5.6004938E+02
 5.0435873E+00  5.5913794E+02
 5.0533591E+00  5.5860376E+02
 5.0631310E+00  5.5828882E+02
 5.0729028E+00  5.5790002E+02
 5.0826746E+00  5.5791882E+02
 5.0924465E+00  5.5722845E+02
 5.1022183E+00  5.5674097E+02
 5.1119901E+00  5.5620819E+02
 5.1217620E+00  5.5643964E+02
 5.1315338E+00  5.5631671E+02
 5.1413056E+00  5.5641296E+02
 5.1510775E+00  5.5621124E+02
 5.1608493E+00  5.5587531E+02
 5.1706212E+00  5.5508197E+02
 5.1803930E+00  5.5431787E+02
 5.1901648E+00  5.5393475E+02
 5.1999367E+00  5.5376880E+02
 5.2097085E+00  5.5390173E+02
 5.2194803E+00  5.5430652E+02
 5.2292522E+00  5.5488776E+02
 5.2390240E+00  5.5474176E+02
 5.2487958E+00  5.5454266E+02
 5.2585677E+00  5.5408179E+02
 5.2683395E+00  5.5433221E+02
 5.2781114E+00  5.5456830E+02
 5.2878832E+00  5.5468488E+02
 5.2976550E+00  5.5547028E+02
 5.3074269E+00  5.5511017E+02
 5.3171987E+00  5.5404425E+02
 5.3269705E+00  5.5263782E+02
 5.3367424E+00  5.5121832E+02
 5.3465142E+00  5.4986407E+02
 5.3562860E+00  5.4899463E+02
 5.3660579E+00  5.4870435E+02
 5.3758297E+00  5.4830139E+02
 5.3856016E+00  5.4826202E+02
 5.3953734E+00  5.4805908E+02
 5.4051452E+00  5.4814355E+02
 5.4149171E+00  5.4778363E+02
 5.4246889E+00  5.4734760E+02
 5.4344607E+00  5.4668463E+02
 5.4442326E+00  5.4631299E+02
 5.4540044E+00  5.4612585E+02
 5.4637762E+00  5.4614136E+02
 5.4735481E+00  5.4605731E+02
 5.4833199E+00  5.4582501E+02
 5.4930918E+00  5.4565948E+02
 5.5028636E+00  5.4506891E+02
 5.5126354E+00  5.4473834E+02
 5.5224073E+00  5.4454999E+02
 5.5321791E+00  5.4409058E+02
 5.5419509E+00  5.4373785E+02
 5.5517228E+00  5.4379449E+02
 5.5614946E+00  5.4407001E+02
 5.5712664E+00  5.4386890E+02
 5.5810383E+00  5.4366211E+02
 5.5908101E+00  5.4378210E+02
 5.6005820E+00  5.4422925E+02
 5.6103538E+00  5.4472284E+02
 5.6201256E+00  5.4503308E+02
 5.6298975E+00  5.4495874E+02
 5.6396693E+00  5.4485516E+02
 5.6494411E+00  5.4505072E+02
 5.6592130E+00  5.4545813E+02
 5.6689848E+00  5.4586096E+02
 5.6787566E+00  5.4587524E+02
 5.6885285E+00  5.4551166E+02
 5.6983003E+00  5.4518085E+02
 5.7080722E+00  5.4464990E+02
 5.7178440E+00  5.4432751E+02
 5.7276158E+00  5.4450653E+02
 5.7373877E+00  5.4522247E+02
 5.7471595E+00  5.4585138E+02
 5.7569313E+00  5.4639984E+02
 5.7667032E+00  5.4714337E+02
 5.7764750E+00  5.4796075E+02
 5.7862468E+00  5.4875958E+02
 5.7960187E+00  5.4951184E+02
 5.8057905E+00  5.5101917E+02
 5.8155624E+00  5.5231854E+02
 5.8253342E+00  5.5385577E+02
 5.8351060E+00  5.5526044E+02
 5.8448779E+00  5.5703265E+02
 5.8546497E+00  5.5878156E+02
 5.8644215E+00  5.6162708E+02
 5.8741934E+00  5.6496313E+02
 5.8839652E+00  5.6898871E+02
 5.8937370E+00  5.7459521E+02
 5.9035089E+00  5.8198871E+02
 5.9132807E+00  5.9078107E+02
 5.9230526E+00  6.0133380E+02
 5.9328244E+00  6.1417786E+02
 5.9425962E+00  6.3060907E+02
 5.9523681E+00  6.5188910E+02
 5.9621399E+00  7.1388165E+02
 5.9719117E+00  8.2229938E+02
 5.9816836E+00  9.6657837E+02
 5.9914554E+00  1.1057520E+03
 6.0012272E+00  1.2387362E+03
 6.0109991E+00  1.3971927E+03
 6.0207709E+00  1.6009374E+03
 6.0305428E+00  1.8248866E+03
 6.0403146E+00  1.9551969E+03
 6.0500864E+00  1.9572922E+03
 6.0598583E+00  1.8266010E+03
 6.0696301E+00  1.5974501E+03
 6.0794019E+00  1.3560793E+03
 6.0891738E+00  1.1371611E+03
 6.0989456E+00  9.4624768E+02
 6.1087174E+00  8.1283820E+02
 6.1184893E+00  7.2141620E+02
 6.1282611E+00  6.7095331E+02
 6.1380330E+00  6.4119757E+02
 6.1478048E+00  6.1949194E+02
 6.1575766E+00  6.0294373E+02
 6.1673485E+00  5.8948102E+02
 6.1771203E+00  5.7881152E+02
 6.1868921E+00  5.6956775E+02
 6.1966640E+00  5.6204608E+02
 6.2064358E+00  5.5585309E+02
 6.2162076E+00  5.5063104E+02
 6.2259795E+00  5.4650616E+02
 6.2357513E+00  5.4311353E+02
 6.2455232E+00  5.4045703E+02
 6.2552950E+00  5.3762994E+02
 6.2650668E+00  5.3573523E+02
 6.2748387E+00  5.3375543E+02
 6.2846105E+00  5.3201746E+02
 6.2943823E+00  5.3028973E+02
 6.3041542E+00  5.2920349E+02
 6.3139260E+00  5.2796967E+02
 6.3236978E+00  5.2709796E+02
 6.3334697E+00  5.2575885E+02
 6.3432415E+00  5.2465222E+02
 6.3530134E+00  5.2359003E+02
 6.3627852E+00  5.2240631E+02
 6.3725570E+00  5.2130463E+02
 6.3823289E+00  5.2004608E+02
 6.3921007E+00  5.1925055E+02
 6.4018725E+00  5.1827203E+02
 6.4116444E+00  5.1751495E+02
 6.4214162E+00  5.1660394E+02
 6.4311880E+00  5.1600555E+02
 6.4409599E+00  5.1492859E+02
 6.4507317E+00  5.1421057E+02
 6.4605036E+00  5.1358801E+02
 6.4702754E+00  5.1312738E+02
 6.4800472E+00  5.1286700E+02
 6.4898191E+00  5.1299274E+02
 6.4995909E+00  5.1250299E+02
 6.5093627E+00  5.1201672E+02
 6.5191346E+00  5.1141705E+02
 6.5289064E+00  5.1089337E+02
 6.5386782E+00  5.1033307E+02
 6.5484501E+00  5.1009702E+02
 6.5582219E+00  5.0964807E+02
 6.5679938E+00  5.0901907E+02
 6.5777656E+00  5.0881369E+02
 6.5875374E+00  5.0867999E+02
 6.5973093E+00  5.0816104E+02
 6.6070811E+00  5.0745773E+02
 6.6168529E+00  5.0666312E+02
 6.6266248E+00  5.0626556E+02
 6.6363966E+00  5.0571893E+02
 6.6461684E+00  5.0527618E+02
 6.6559403E+00  5.0450662E+02
 6.6657121E+00  5.0425531E+02
 6.6754839E+00  5.0369495E+02
 6.6852558E+00  5.0353287E+02
 6.6950276E+00  5.0314996E+02
 6.7047995E+00  5.0311462E+02
 6.7145713E+00  5.0263898E+02
 6.7243431E+00  5.0210431E+02
 6.7341150E+00  5.0196182E+02
 6.7438868E+00  5.0180423E+02
 6.7536586E+00  5.0150653E+02
 6.7634305E+00  5.0134674E+02
 6.7732023E+00  5.0109329E+02
 6.7829741E+00  5.0071506E+02
 6.7927460E+00  5.0027927E+02
 6.8025178E+00  5.0021088E+02
 6.8122897E+00  4.9966122E+02
 6.8220615E+00  4.9923804E+02
 6.8318333E+00  4.9873816E+02
 6.8416052E+00  4.9833389E+02
 6.8513770E+00  4.9791614E+02
 6.8611488E+00  4.9794278E+02
 6.8709207E+00  4.9756866E+02
 6.8806925E+00  4.9767685E+02
 6.8904643E+00  4.9765515E+02
 6.9002362E+00  4.9733087E+02
 6.9100080E+00  4.9704849E+02
 6.9197799E+00  4.9709796E+02
 6.9295517E+00  4.9677353E+02
 6.9393235E+00  4.9648810E+02
 6.9490954E+00  4.9621948E+02
 6.9588672E+00  4.9593887E+02
 6.9686390E+00  4.9623300E+02
 6.9784109E+00  4.9668286E+02
 6.9881827E+00  4.9694318E+02
 6.9979545E+00  4.9674551E+02
 7.0077264E+00  4.9632956E+02
 7.0174982E+00  4.9587445E+02
 7.0272701E+00  4.9563467E+02
 7.0370419E+00  4.9605350E+02
 7.0468137E+00  4.9597742E+02
 7.0565856E+00  4.9595441E+02
 7.0663574E+00  4.9588608E+02
 7.0761292E+00  4.9595007E+02
 7.0859011E+00  4.9587448E+02
 7.0956729E+00  4.9575916E+02
 7.1054447E+00  4.9575403E+02
 7.1152166E+00  4.9558362E+02
 7.1249884E+00  4.9595450E+02
 7.1347603E+00  4.9661929E+02
 7.1445321E+00  4.9744229E+02
 7.1543039E+00  4.9814175E+02
 7.1640758E+00  4.9822748E+02
 7.1738476E+00  4.9781015E+02
 7.1836194E+00  4.9805121E+02
 7.1933913E+00  4.9886566E+02
 7.2031631E+00  4.9981339E+02
 7.2129349E+00  5.0093747E+02
 7.2227068E+00  5.0187482E+02
 7.2324786E+00  5.0311865E+02
 7.2422505E+00  5.0457562E+02
 7.2520223E+00  5.0615405E+02
 7.2617941E+00  5.0847479E+02
 7.2715660E+00  5.1200140E+02
 7.2813378E+00  5.1574908E+02
 7.2911096E+00  5.2034583E+02
 7.3008815E+00  5.2582184E+02
 7.3106533E+00  5.3342542E+02
 7.3204251E+00  5.4377393E+02
 7.3301970E+00  5.5839789E+02
 7.3399688E+00  5.7993518E+02
 7.3497407E+00  6.0935736E+02
 7.3595125E+00  6.5608325E+02
 7.3692843E+00  7.1552606E+02
 7.3790562E+00  8.0465021E+02
 7.3888280E+00  8.8859302E+02
 7.3985998E+00  9.4295483E+02
 7.4083717E+00  9.4632983E+02
 7.4181435E+00  9.0772516E+02
 7.4279153E+00  8.1740186E+02
 7.4376872E+00  7.3223651E+02
 7.4474590E+00  6.6646783E+02
 7.4572309E+00  6.1578473E+02
 7.4670027E+00  5.8600140E+02
 7.4767745E+00  5.6418878E+02
 7.4865464E+00  5.4942450E+02
 7.4963182E+00  5.3774377E+02
 7.5060900E+00  5.2922687E+02
 7.5158619E+00  5.2239911E+02
 7.5256337E+00  5.1665820E+02
 7.5354055E+00  5.1205469E+02
 7.5451774E+00  5.0857761E+02
 7.5549492E+00  5.0526285E+02
 7.5647211E+00  5.0226251E+02
 7.5744929E+00  4.9973279E+02
 7.5842647E+00  4.9771732E+02
 7.5940366E+00  4.9566901E+02
 7.6038084E+00  4.9417667E+02
 7.6135802E+00  4.9294891E+02
 7.6233521E+00  4.9220892E+02
 7.6331239E+00  4.9164822E+02
 7.6428957E+00  4.9100287E+02
 7.6526676E+00  4.9035782E+02
 7.6624394E+00  4.8977023E+02
 7.6722113E+00  4.8936938E+02
 7.6819831E+00  4.8904385E+02
 7.6917549E+00  4.8877600E+02
 7.7015268E+00  4.8830759E+02
 7.7112986E+00  4.8743277E+02
 7.7210704E+00  4.8657062E+02
 7.7308423E+00  4.8593610E+02
 7.7406141E+00  4.8515686E+02
 7.7503859E+00  4.8476144E+02
 7.7601578E+00  4.8446786E+02
 7.7699296E+00  4.8466208E+02
 7.7797015E+00  4.8489767E+02
 7.7894733E+00  4.8515076E+02
 7.7992451E+00  4.8516537E+02
 7.8090170E+00  4.8497577E+02
 7.8187888E+00  4.8495905E+02
 7.8285606E+00  4.8489774E+02
 7.8383325E+00  4.8490775E+02
 7.8481043E+00  4.8448102E+02
 7.8578761E+00  4.8391760E+02
 7.8676480E+00  4.8362024E+02
 7.8774198E+00  4.8356073E+02
 7.8871917E+00  4.8393652E+02
 7.8969635E+00  4.8414249E+02
 7.9067353E+00  4.8439111E+02
 7.9165072E+00  4.8431866E+02
 7.9262790E+00  4.8434995E+02
 7.9360508E+00  4.8399158E+02
 7.9458227E+00  4.8357584E+02
 7.9555945E+00  4.8348532E+02
 7.9653663E+00  4.8327142E+02
 7.9751382E+00  4.8337814E+02
 7.9849100E+00  4.8344324E+02
 7.9946819E+00  4.8334610E+02
 8.0044537E+00  4.8307794E+02
 8.0142255E+00  4.8316849E+02
 8.0239974E+00  4.8319269E+02
 8.0337692E+00  4.8358804E+02
 8.0435410E+00  4.8395435E+02
 8.0533129E+00  4.8396292E+02
 8.0630847E+00  4.8393973E+02
 8.0728565E+00  4.8394687E+02
 8.0826284E+00  4.8402887E+02
 8.0924002E+00  4.8432166E+02
 8.1021721E+00  4.8430362E+02
 8.1119439E+00  4.8403494E+02
 8.1217157E+00  4.8408774E+02
 8.1314876E+00  4.8452908E+02
 8.1412594E+00  4.8500082E+02
 8.1510312E+00  4.8534943E+02
 8.1608031E+00  4.8582843E+02
 8.1705749E+00  4.8615796E+02
 8.1803467E+00  4.8668588E+02
 8.1901186E+00  4.8736124E+02
 8.1998904E+00  4.8816739E+02
 8.2096623E+00  4.8834003E+02
 8.2194341E+00  4.8830188E+02
 8.2292059E+00  4.8816080E+02
 8.2389778E+00  4.8817670E+02
 8.2487496E+00  4.8797092E+02
 8.2585214E+00  4.8771677E+02
 8.2682933E+00  4.8747986E+02
 8.2780651E+00  4.8711295E+02
 8.2878369E+00  4.8743341E+02
 8.2976088E+00  4.8717526E+02
 8.3073806E+00  4.8743210E+02
 8.3171525E+00  4.8723657E+02
 8.3269243E+00  4.8733432E+02
 8.3366961E+00  4.8783939E+02
 8.3464680E+00  4.8828400E+02
 8.3562398E+00  4.8885706E+02
 8.3660116E+00  4.8905789E+02
 8.3757835E+00  4.8961749E+02
 8.3855553E+00  4.9018658E+02
 8.3953271E+00  4.9149115E+02
 8.4050990E+00  4.9297998E+02
 8.4148708E+00  4.9424362E+02
 8.4246426E+00  4.9485907E+02
 8.4344145E+00  4.9594400E+02
 8.4441863E+00  4.9752100E+02
 8.4539582E+00  5.0040338E+02
 8.4637300E+00  5.0429428E+02
 8.4735018E+00  5.0965884E+02
 8.4832737E+00  5.1629901E+02
 8.4930455E+00  5.2614362E+02
 8.5028173E+00  5.4076288E+02
 8.5125892E+00  5.6303833E+02
 8.5223610E+00  5.9523547E+02
 8.5321328E+00  6.3141327E+02
 8.5419047E+00  6.6551636E+02
 8.5516765E+00  6.7948480E+02
 8.5614484E+00  6.6858142E+02
 8.5712202E+00  6.3807520E+02
 8.5809920E+00  6.0181445E+02
 8.5907639E+00  5.6818701E+02
 8.6005357E+00  5.4444232E+02
 8.6103075E+00  5.2873956E+02
 8.6200794E+00  5.1839062E+02
 8.6298512E+00  5.1148383E+02
 8.6396230E+00  5.0662814E+02
 8.6493949E+00  5.0341049E+02
 8.6591667E+00  5.0089075E+02
 8.6689386E+00  4.9918927E+02
 8.6787104E+00  4.9796512E+02
 8.6884822E+00  4.9723865E+02
 8.6982541E+00  4.9651816E+02
 8.7080259E+00  4.9618729E+02
 8.7177977E+00  4.9598895E+02
 8.7275696E+00  4.9581058E+02
 8.7373414E+00  4.9506964E+02
 8.7471132E+00  4.9434439E+02
 8.7568851E+00  4.9300555E+02
 8.7666569E+00  4.9210495E+02
 8.7764288E+00  4.9101947E+02
 8.7862006E+00  4.9002094E+02
 8.7959724E+00  4.8925452E+02
 8.8057443E+00  4.8879691E+02
 8.8155161E+00  4.8826059E+02
 8.8252879E+00  4.8772675E+02
 8.8350598E+00  4.8709741E+02
 8.8448316E+00  4.8666971E+02
 8.8546034E+00  4.8616830E+02
 8.8643753E+00  4.8562933E+02
 8.8741471E+00  4.8481760E+02
 8.8839190E+00  4.8383145E+02
 8.8936908E+00  4.8278094E+02
 8.9034626E+00  4.8193579E+02
 8.9132345E+00  4.8108853E+02
 8.9230063E+00  4.8057996E+02
 8.9327781E+00  4.8057382E+02
 8.9425500E+00  4.8062674E+02
 8.9523218E+00  4.8076935E+02
 8.9620936E+00  4.8063550E+02
 8.9718655E+00  4.8027563E+02
 8.9816373E+00  4.7980447E+02
 8.9914092E+00  4.7947394E+02
 9.0011810E+00  4.7946191E+02
 9.0109528E+00  4.7931482E+02
 9.0207247E+00  4.7949716E+02
 9.0304965E+00  4.7955954E+02
 9.0402683E+00  4.7947052E+02
 9.0500402E+00  4.7896851E+02
 9.0598120E+00  4.7847342E+02
 9.0695838E+00  4.7796692E+02
 9.0793557E+00  4.7761893E+02
 9.0891275E+00  4.7722177E+02
 9.0988994E+00  4.7691809E+02
 9.1086712E+00  4.7678635E+02
 9.1184430E+00  4.7658032E+02
 9.1282149E+00  4.7644568E+02
 9.1379867E+00  4.7646783E+02
 9.1477585E+00  4.7683160E+02
 9.1575304E+00  4.7692264E+02
 9.1673022E+00  4.7691980E+02
 9.1770740E+00  4.7677090E+02
 9.1868459E+00  4.7624747E+02
 9.1966177E+00  4.7605600E+02
 9.2063896E+00  4.7627548E+02
 9.2161614E+00  4.7667249E+02
 9.2259332E+00  4.7712366E+02
 9.2357051E+00  4.7734006E+02
 9.2454769E+00  4.7766879E+02
 9.2552487E+00  4.7780380E+02
 9.2650206E+00  4.7815692E+02
 9.2747924E+00  4.7850793E+02
 9.2845642E+00  4.7896875E+02
 9.2943361E+00  4.7964655E+02
 9.3041079E+00  4.8054156E+02
 9.3138798E+00  4.8171762E+02
 9.3236516E+00  4.8274338E+02
 9.3334234E+00  4.8390344E+02
 9.3431953E+00  4.8457877E+02
 9.3529671E+00  4.8549313E+02
 9.3627389E+00  4.8671796E+02
 9.3725108E+00  4.8822687E+02
 9.3822826E+00  4.8940829E+02
 9.3920544E+00  4.9113535E+02
 9.4018263E+00  4.9356296E+02
 9.4115981E+00  4.9672803E+02
 9.4213700E+00  5.0022882E+02
 9.4311418E+00  5.0482538E+02
 9.4409136E+00  5.1014053E+02
 9.4506855E+00  5.3056476E+02
 9.4604573E+00  5.5782153E+02
 9.4702291E+00  5.8689355E+02
 9.4800010E+00  6.0877637E+02
 9.4897728E+00  6.3761090E+02
 9.4995446E+00  6.8313037E+02
 9.5093165E+00  7.4207550E+02
 9.5190883E+00  8.1604279E+02
 9.5288602E+00  9.2025311E+02
 9.5386320E+00  1.0511522E+03
 9.5484038E+00  1.1796853E+03
 9.5581757E+00  1.2706216E+03
 9.5679475E+00  1.2758726E+03
 9.5777193E+00  1.2169852E+03
 9.5874912E+00  1.0759301E+03
 9.5972630E+00  9.4712140E+02
 9.6070348E+00  8.1462781E+02
 9.6168067E+00  7.3090765E+02
 9.6265785E+00  6.6840149E+02
 9.6363504E+00  6.0909961E+02
 9.6461222E+00  5.7065466E+02
 9.6558940E+00  5.3950494E+02
 9.6656659E+00  5.2500055E+02
 9.6754377E+00  5.1538672E+02
 9.6852095E+00  5.0762717E+02
 9.6949814E+00  5.0104266E+02
 9.7047532E+00  4.9548096E+02
 9.7145250E+00  4.9093176E+02
 9.7242969E+00  4.8784619E+02
 9.7340687E+00  4.8469864E+02
 9.7438406E+00  4.8241837E+02
 9.7536124E+00  4.8015067E+02
 9.7633842E+00  4.7851788E+02
 9.7731561E+00  4.7697073E+02
 9.7829279E+00  4.7528238E+02
 9.7926997E+00  4.7371555E+02
 9.8024716E+00  4.7243005E+02
 9.8122434E+00  4.7134378E+02
 9.8220152E+00  4.7043716E+02
 9.8317871E+00  4.6999820E+02
 9.8415589E+00  4.6971979E+02
 9.8513308E+00  4.6911868E+02
 9.8611026E+00  4.6818893E+02
 9.8708744E+00  4.6743954E+02
 9.8806463E+00  4.6675122E+02
 9.8904181E+00  4.6587878E+02
 9.9001899E+00  4.6522186E+02
 9.9099618E+00  4.6466357E+02
 9.9197336E+00  4.6397595E+02
 9.9295054E+00  4.6354340E+02
 9.9392773E+00  4.6298660E+02
 9.9490491E+00  4.6259665E+02
 9.9588210E+00  4.6223630E+02
 9.9685928E+00  4.6213678E+02
 9.9783646E+00  4.6191226E+02
 9.9881365E+00  4.6166782E+02
 9.9979083E+00  4.6140540E+02
 1.0007680E+01  4.6126758E+02
 1.0017452E+01  4.6094778E+02
 1.0027224E+01  4.6069098E+02
 1.0036996E+01  4.6065204E+02
 1.0046767E+01  4.6075006E+02
 1.0056539E+01  4.6091443E+02
 1.0066311E+01  4.6116492E+02
 1.0076083E+01  4.6123410E+02
 1.0085855E+01  4.6135849E+02
 1.0095627E+01  4.6101459E+02
 1.0105398E+01  4.6077130E+02
 1.0115170E+01  4.6031812E+02
 1.0124942E+01  4.6003931E+02
 1.0134714E+01  4.5969656E+02
 1.0144486E+01  4.5945746E+02
 1.0154258E+01  4.5905591E+02
 1.0164030E+01  4.5877905E+02
 1.0173801E+01  4.5881226E+02
 1.0183573E+01  4.5884106E+02
 1.0193345E+01  4.5908942E+02
 1.0203117E+01  4.5954953E+02
 1.0212889E+01  4.5998874E+02
 1.0222661E+01  4.6027408E+02
 1.0232432E+01  4.6084375E+02
 1.0242204E+01  4.6123010E+02
 1.0251976E+01  4.6165335E+02
 1.0261748E+01  4.6212027E+02
 1.0271520E+01  4.6253571E+02
 1.0281292E+01  4.6343747E+02
 1.0291063E+01  4.6474628E+02
 1.0300835E+01  4.6611240E+02
 1.0310607E+01  4.6723831E+02
 1.0320379E+01  4.6864291E+02
 1.0330151E+01  4.7012787E+02
 1.0339923E+01  4.7176758E+02
 1.0349694E+01  4.7393463E+02
 1.0359466E+01  4.7671115E+02
 1.0369238E+01  4.8007974E+02
 1.0379010E+01  4.8426129E+02
 1.0388782E+01  4.9017957E+02
 1.0398554E+01  4.9752005E+02
 1.0408325E+01  5.0804355E+02
 1.0418097E+01  5.2161505E+02
 1.0427869E+01  5.4277478E+02
 1.0437641E+01  5.7220367E+02
 1.0447413E+01  6.1701367E+02
 1.0457185E+01  6.6945844E+02
 1.0466956E+01  7.1919714E+02
 1.0476728E+01  7.5259308E+02
 1.0486500E+01  7.5029688E+02
 1.0496272E+01  7.1170618E+02
 1.0506044E+01  6.5989972E+02
 1.0515816E+01  6.0557062E+02
 1.0525587E+01  5.6290222E+02
 1.0535359E+01  5.3484399E+02
 1.0545131E+01  5.1532520E+02
 1.0554903E+01  5.0330353E+02
 1.0564675E+01  4.9442883E+02
 1.0574447E+01  4.8750806E+02
 1.0584218E+01  4.8206635E+02
 1.0593990E+01  4.7766113E+02
 1.0603762E+01  4.7404031E+02
 1.0613534E+01  4.7107425E+02
 1.0623306E+01  4.6882602E+02
 1.0633078E+01  4.6645300E+02
 1.0642849E+01  4.6456635E+02
 1.0652621E+01  4.6284528E+02
 1.0662393E+01  4.6143018E+02
 1.0672165E+01  4.6036197E+02
 1.0681937E+01  4.5932983E+02
 1.0691709E+01  4.5832556E+02
 1.0701481E+01  4.5712357E+02
 1.0711252E+01  4.5617780E+02
 1.0721024E+01  4.5576721E+02
 1.0730796E+01  4.5550217E+02
 1.0740568E+01  4.5536404E+02
 1.0750340E+01  4.5497711E+02
 1.0760112E+01  4.5472833E+02
 1.0769883E+01  4.5435226E+02
 1.0779655E+01  4.5409747E+02
 1.0789427E+01  4.5386963E+02
 1.0799199E+01  4.5364297E+02
 1.0808971E+01  4.5329248E+02
 1.0818743E+01  4.5311377E+02
 1.0828514E+01  4.5287802E+02
 1.0838286E+01  4.5271185E+02
 1.0848058E+01  4.5243326E+02
 1.0857830E+01  4.5212170E+02
 1.0867602E+01  4.5195688E+02
 1.0877374E+01  4.5155228E+02
 1.0887145E+01  4.5111349E+02
 1.0896917E+01  4.5096075E+02
 1.0906689E+01  4.5068832E+02
 1.0916461E+01  4.5072693E+02
 1.0926233E+01  4.5043546E+02
 1.0936005E+01  4.5051889E+02
 1.0945776E+01  4.5035236E+02
 1.0955548E+01  4.5042166E+02
 1.0965320E+01  4.5024164E+02
 1.0975092E+01  4.5027402E+02
 1.0984864E+01  4.5032782E+02
 1.0994636E+01  4.5002905E+02
 1.1004407E+01  4.4953766E+02
 1.1014179E+01  4.4918268E+02
 1.1023951E+01  4.4874521E+02
 1.1033723E+01  4.4836423E+02
 1.1043495E+01  4.4807758E+02
 1.1053267E+01  4.4784396E+02
 1.1063038E+01  4.4762012E+02
 1.1072810E+01  4.4753821E+02
 1.1082582E+01  4.4730902E+02
 1.1092354E+01  4.4701965E+02
 1.1102126E+01  4.4699039E+02
 1.1111898E+01  4.4695529E+02
 1.1121669E+01  4.4718814E+02
 1.1131441E+01  4.4746860E+02
 1.1141213E+01  4.4743057E+02
 1.1150985E+01  4.4724188E+02
 1.1160757E+01  4.4673880E+02
 1.1170529E+01  4.4658939E+02
 1.1180300E+01  4.4617215E+02
 1.1190072E+01  4.4626602E+02
 1.1199844E+01  4.4604764E+02
 1.1209616E+01  4.4629642E+02
 1.1219388E+01  4.4654343E+02
 1.1229160E+01  4.4693958E+02
 1.1238932E+01  4.4696637E+02
 1.1248703E+01  4.4699713E+02
 1.1258475E+01  4.4669687E+02
 1.1268247E+01  4.4639578E+02
 1.1278019E+01  4.4629099E+02
 1.1287791E+01  4.4636435E+02
 1.1297563E+01  4.4640607E+02
 1.1307334E+01  4.4645013E+02
 1.1317106E+01  4.4679556E+02
 1.1326878E+01  4.4721146E+02
 1.1336650E+01  4.4752002E+02
 1.1346422E+01  4.4765515E+02
 1.1356194E+01  4.4751416E+02
 1.1365965E+01  4.4755176E+02
 1.1375737E+01  4.4698666E+02
 1.1385509E+01  4.4639777E+02
 1.1395281E+01  4.4574097E+02
 1.1405053E+01  4.4565640E+02
 1.1414825E+01  4.4570117E+02
 1.1424596E+01  4.4574774E+02
 1.1434368E+01  4.4565982E+02
 1.1444140E+01  4.4559225E+02
 1.1453912E+01  4.4534625E+02
 1.1463684E+01  4.4509711E+02
 1.1473456E+01  4.4499182E+02
 1.1483227E+01  4.4512753E+02
 1.1492999E+01  4.4544592E+02
 1.1502771E+01  4.4596774E+02
 1.1512543E+01  4.4623532E+02
 1.1522315E+01  4.4623691E+02
 1.1532087E+01  4.4596115E+02
 1.1541858E+01  4.4545566E+02
 1.1551630E+01  4.4495624E+02
 1.1561402E+01  4.4511292E+02
 1.1571174E+01  4.4547647E+02
 1.1580946E+01  4.4565894E+02
 1.1590718E+01  4.4558618E+02
 1.1600489E+01  4.4552118E+02
 1.1610261E+01  4.4565399E+02
 1.1620033E+01  4.4560480E+02
 1.1629805E+01  4.4564069E+02
 1.1639577E+01  4.4547455E+02
 1.1649349E+01  4.4552231E+02
 1.1659120E+01  4.4547714E+02
 1.1668892E+01  4.4569949E+02
 1.1678664E+01  4.4535464E+02
 1.1688436E+01  4.4532797E+02
 1.1698208E+01  4.4496140E+02
 1.1707980E+01  4.4509863E+02
 1.1717751E+01  4.4496985E+02
 1.1727523E+01  4.4520776E+02
 1.1737295E+01  4.4530783E+02
 1.1747067E+01  4.4577051E+02
 1.1756839E+01  4.4609518E+02
 1.1766611E+01  4.4628976E+02
 1.1776383E+01  4.4613187E+02
 1.1786154E+01  4.4625137E+02
 1.1795926E+01  4.4624103E+02
 1.1805698E+01  4.4632175E+02
 1.1815470E+01  4.4619220E+02
 1.1825242E+01  4.4626434E+02
 1.1835014E+01  4.4638370E+02
 1.1844785E+01  4.4660544E+02
 1.1854557E+01  4.4693390E+02
 1.1864329E+01  4.4754031E+02
 1.1874101E+01  4.4784283E+02
 1.1883873E+01  4.4821436E+02
 1.1893645E+01  4.4897815E+02
 1.1903416E+01  4.4993991E+02
 1.1913188E+01  4.5067957E+02
 1.1922960E+01  4.5126196E+02
 1.1932732E+01  4.5206897E+02
 1.1942504E+01  4.5287115E+02
 1.1952276E+01  4.5401730E+02
 1.1962047E+01  4.5569952E+02
 1.1971819E+01  4.5770770E+02
 1.1981591E+01  4.5971664E+02
 1.1991363E+01  4.6211716E+02
 1.2001135E+01  4.6544418E+02
 1.2010907E+01  4.7014972E+02
 1.2020678E+01  4.9465665E+02
 1.2030450E+01  5.1712799E+02
 1.2040222E+01  5.5719739E+02
 1.2049994E+01  5.9012524E+02
 1.2059766E+01  6.1703845E+02
 1.2069538E+01  6.3820911E+02
 1.2079309E+01  6.5088715E+02
 1.2089081E+01  6.6685815E+02
 1.2098853E+01  6.7702374E+02
 1.2108625E+01  6.7883478E+02
 1.2118397E+01  6.7173163E+02
 1.2128169E+01  6.5758936E+02
 1.2137940E+01  6.4346033E+02
 1.2147712E+01  6.1204138E+02
 1.2157484E+01  5.9421619E+02
 1.2167256E+01  5.5840295E+02
 1.2177028E+01  5.5265149E+02
 1.2186800E+01  5.2696899E+02
 1.2196571E+01  5.1706628E+02
 1.2206343E+01  4.8937244E+02
 1.2216115E+01  4.7674799E+02
 1.2225887E+01  4.6283801E+02
 1.2235659E+01  4.5985831E+02
 1.2245431E+01  4.5741879E+02
 1.2255202E+01  4.5562747E+02
 1.2264974E+01  4.5427942E+02
 1.2274746E+01  4.5307651E+02
 1.2284518E+01  4.5212814E+02
 1.2294290E+01  4.5108957E+02
 1.2304062E+01  4.5038498E+02
 1.2313834E+01  4.4980762E+02
 1.2323605E+01  4.4931052E+02
 1.2333377E+01  4.4881717E+02
 1.2343149E+01  4.4829227E+02
 1.2352921E+01  4.4800528E+02
 1.2362693E+01  4.4760815E+02
 1.2372465E+01  4.4734653E+02
 1.2382236E+01  4.4683124E+02
 1.2392008E+01  4.4660355E+02
 1.2401780E+01  4.4626740E+02
 1.2411552E+01  4.4619858E+02
 1.2421324E+01  4.4589200E+02
 1.2431096E+01  4.4579453E+02
 1.2440867E+01  4.4580475E+02
 1.2450639E+01  4.4594339E+02
 1.2460411E+01  4.4624466E+02
 1.2470183E+01  4.4629855E+02
 1.2479955E+01  4.4622079E+02
 1.2489727E+01  4.4589740E+02
 1.2499498E+01  4.4583151E+02
 1.2509270E+01  4.4603723E+02
 1.2519042E+01  4.4618161E+02
 1.2528814E+01  4.4655997E+02
 1.2538586E+01  4.4688971E+02
 1.2548358E+01  4.4727509E+02
 1.2558129E+01  4.4744296E+02
 1.2567901E+01  4.4775888E+02
 1.2577673E+01  4.4819223E+02
 1.2587445E+01  4.4884055E+02
 1.2597217E+01  4.4930640E+02
 1.2606989E+01  4.4978156E+02
 1.2616760E+01  4.5051807E+02
 1.2626532E+01  4.5193896E+02
 1.2636304E+01  4.5347351E+02
 1.2646076E+01  4.5507050E+02
 1.2655848E+01  4.5653799E+02
 1.2665620E+01  4.5820978E+02
 1.2675391E+01  4.5994574E+02
 1.2685163E+01  4.6165015E+02
 1.2694935E+01  4.6384143E+02
 1.2704707E+01  4.6663647E+02
 1.2714479E+01  4.7040833E+02
 1.2724251E+01  4.7495383E+02
 1.2734022E+01  4.8073999E+02
 1.2743794E+01  4.8807986E+02
 1.2753566E+01  4.9671255E+02
 1.2763338E+01  5.0899377E+02
 1.2773110E+01  5.2369684E+02
 1.2782882E+01  5.4620312E+02
 1.2792653E+01  5.7457629E+02
 1.2802425E+01  6.1401422E+02
 1.2812197E+01  6.6797284E+02
 1.2821969E+01  7.2391882E+02
 1.2831741E+01  7.7824994E+02
 1.2841513E+01  8.0804944E+02
 1.2851285E+01  8.0260291E+02
 1.2861056E+01  7.6139142E+02
 1.2870828E+01  7.0275055E+02
 1.2880600E+01  6.4057910E+02
 1.2890372E+01  5.9267029E+02
 1.2900144E+01  5.5531140E+02
 1.2909916E+01  5.3106549E+02
 1.2919687E+01  5.1333447E+02
 1.2929459E+01  5.0059351E+02
 1.2939231E+01  4.9116650E+02
 1.2949003E+01  4.8393668E+02
 1.2958775E+01  4.7823190E+02
 1.2968547E+01  4.7351691E+02
 1.2978318E+01  4.6970386E+02
 1.2988090E+01  4.6646057E+02
 1.2997862E+01  4.6357190E+02
 1.3007634E+01  4.6103305E+02
 1.3017406E+01  4.5889096E+02
 1.3027178E+01  4.5700342E+02
 1.3036949E+01  4.5562918E+02
 1.3046721E+01  4.5423138E+02
 1.3056493E+01  4.5325070E+02
 1.3066265E+01  4.5218588E+02
 1.3076037E+01  4.5115002E+02
 1.3085809E+01  4.4992410E+02
 1.3095580E+01  4.4917853E+02
 1.3105352E+01  4.4852908E+02
 1.3115124E+01  4.4794894E+02
 1.3124896E+01  4.4735126E+02
 1.3134668E+01  4.4683054E+02
 1.3144440E+01  4.4638654E+02
 1.3154211E+01  4.4590176E+02
 1.3163983E+01  4.4541510E+02
 1.3173755E+01  4.4502966E+02
 1.3183527E+01  4.4496857E+02
 1.3193299E+01  4.4502194E+02
 1.3203071E+01  4.4510611E+02
 1.3212842E+01  4.4528149E+02
 1.3222614E+01  4.4536755E+02
 1.3232386E+01  4.4535370E+02
 1.3242158E+01  4.4529312E+02
 1.3251930E+01  4.4521402E+02
 1.3261702E+01  4.4537845E+02
 1.3271473E+01  4.4594138E+02
 1.3281245E+01  4.4659564E+02
 1.3291017E+01  4.4692218E+02
 1.3300789E+01  4.4716849E+02
 1.3310561E+01  4.4735452E+02
 1.3320333E+01  4.4747122E+02
 1.3330104E+01  4.4762839E+02
 1.3339876E+01  4.4844186E+02
 1.3349648E+01  4.4941849E+02
 1.3359420E+01  4.5081744E+02
 1.3369192E+01  4.5227960E+02
 1.3378964E+01  4.5381750E+02
 1.3388735E+01  4.5541266E+02
 1.3398507E+01  4.5719620E+02
 1.3408279E+01  4.5981937E+02
 1.3418051E+01  4.6312448E+02
 1.3427823E+01  4.6707230E+02
 1.3437595E+01  4.7190088E+02
 1.3447367E+01  4.7832632E+02
 1.3457138E+01  4.8607516E+02
 1.3466910E+01  4.9765198E+02
 1.3476682E+01  5.2463794E+02
 1.3486454E+01  5.5770636E+02
 1.3496226E+01  6.1809888E+02
 1.3505998E+01  6.6640143E+02
 1.3515769E+01  7.2559869E+02
 1.3525541E+01  7.7628412E+02
 1.3535313E+01  8.1180078E+02
 1.3545085E+01  8.1407275E+02
 1.3554857E+01  7.7881592E+02
 1.3564629E+01  7.1497430E+02
 1.3574400E+01  6.3298187E+02
 1.3584172E+01  5.7764996E+02
 1.3593944E+01  5.3663434E+02
 1.3603716E+01  5.1340619E+02
 1.3613488E+01  4.9900717E+02
 1.3623260E+01  4.8866876E+02
 1.3633031E+01  4.8045975E+02
 1.3642803E+01  4.7427505E+02
 1.3652575E+01  4.6912274E+02
 1.3662347E+01  4.6508038E+02
 1.3672119E+01  4.6173889E+02
 1.3681891E+01  4.5908142E+02
 1.3691662E+01  4.5640237E+02
 1.3701434E+01  4.5404282E+02
 1.3711206E+01  4.5215384E+02
 1.3720978E+01  4.5074988E+02
 1.3730750E+01  4.4976981E+02
 1.3740522E+01  4.4875278E+02
 1.3750293E+01  4.4772812E+02
 1.3760065E+01  4.4694272E+02
 1.3769837E+01  4.4627011E+02
 1.3779609E+01  4.4588605E+02
 1.3789381E+01  4.4539883E+02
 1.3799153E+01  4.4477213E+02
 1.3808924E+01  4.4451337E+02
 1.3818696E+01  4.4432318E+02
 1.3828468E+01  4.4387906E+02
 1.3838240E+01  4.4363995E+02
 1.3848012E+01  4.4376434E+02
 1.3857784E+01  4.4365833E+02
 1.3867555E+01  4.4365063E+02
 1.3877327E+01  4.4323639E+02
 1.3887099E+01  4.4313269E+02
 1.3896871E+01  4.4286630E+02
 1.3906643E+01  4.4276822E+02
 1.3916415E+01  4.4266144E+02
 1.3926186E+01  4.4251929E+02
 1.3935958E+01  4.4253546E+02
 1.3945730E+01  4.4298346E+02
 1.3955502E+01  4.4312692E+02
 1.3965274E+01  4.4320331E+02
 1.3975046E+01  4.4322980E+02
 1.3984818E+01  4.4339520E+02
 1.3994589E+01  4.4371753E+02
 1.4004361E+01  4.4393573E+02
 1.4014133E+01  4.4416638E+02
 1.4023905E+01  4.4452127E+02
 1.4033677E+01  4.4512534E+02
 1.4043449E+01  4.4622928E+02
 1.4053220E+01  4.4733154E+02
 1.4062992E+01  4.4864752E+02
 1.4072764E+01  4.5010452E+02
 1.4082536E+01  4.5151904E+02
 1.4092308E+01  4.5300586E+02
 1.4102080E+01  4.5468246E+02
 1.4111851E+01  4.5725452E+02
 1.4121623E+01  4.6053668E+02
 1.4131395E+01  4.6553833E+02
 1.4141167E+01  4.7199277E+02
 1.4150939E+01  4.8116470E+02
 1.4160711E+01  4.9249048E+02
 1.4170482E+01  5.0881656E+02
 1.4180254E+01  5.2757556E+02
 1.4190026E+01  5.4819452E+02
 1.4199798E+01  5.6334711E+02
 1.4209570E+01  5.6781476E+02
 1.4219342E+01  5.5818213E+02
 1.4229113E+01  5.3997571E+02
 1.4238885E+01  5.1807098E+02
 1.4248657E+01  4.9901682E+02
 1.4258429E+01  4.8429303E+02
 1.4268201E+01  4.7436691E+02
 1.4277973E+01  4.6745108E+02
 1.4287744E+01  4.6286642E+02
 1.4297516E+01  4.5929434E+02
 1.4307288E+01  4.5617630E+02
 1.4317060E+01  4.5355206E+02
 1.4326832E+01  4.5139133E+02
 1.4336604E+01  4.4960394E+02
 1.4346375E+01  4.4816888E+02
 1.4356147E+01  4.4700085E+02
 1.4365919E+01  4.4604758E+02
 1.4375691E+01  4.4488782E+02
 1.4385463E+01  4.4381342E+02
 1.4395235E+01  4.4326935E+02
 1.4405006E+01  4.4300760E+02
 1.4414778E+01  4.4255377E+02
 1.4424550E+01  4.4202225E+02
 1.4434322E+01  4.4137808E+02
 1.4444094E+01  4.4078510E+02
 1.4453866E+01  4.4019095E+02
 1.4463637E+01  4.4001498E+02
 1.4473409E+01  4.3982358E+02
 1.4483181E+01  4.3964517E+02
 1.4492953E+01  4.3935211E+02
 1.4502725E+01  4.3931992E+02
 1.4512497E+01  4.3919424E+02
 1.4522269E+01  4.3937823E+02
 1.4532040E+01  4.3946497E+02
 1.4541812E+01  4.3945328E+02
 1.4551584E+01  4.3906900E+02
 1.4561356E+01  4.3865125E+02
 1.4571128E+01  4.3818649E+02
 1.4580900E+01  4.3781726E+02
 1.4590671E+01  4.3775595E+02
 1.4600443E+01  4.3793704E+02
 1.4610215E+01  4.3800424E+02
 1.4619987E+01  4.3808438E+02
 1.4629759E+01  4.3803488E+02
 1.4639531E+01  4.3796906E+02
 1.4649302E+01  4.3796863E+02
 1.4659074E+01  4.3831546E+02
 1.4668846E+01  4.3838467E+02
 1.4678618E+01  4.3852133E+02
 1.4688390E+01  4.3881387E+02
 1.4698162E+01  4.3911917E+02
 1.4707933E+01  4.3932806E+02
 1.4717705E+01  4.3966302E+02
 1.4727477E+01  4.4005585E+02
 1.4737249E+01  4.4067654E+02
 1.4747021E+01  4.4103473E+02
 1.4756793E+01  4.4140991E+02
 1.4766564E+01  4.4188815E+02
 1.4776336E+01  4.4267792E+02
 1.4786108E+01  4.4392657E+02
 1.4795880E+01  4.4522437E+02
 1.4805652E+01  4.4711023E+02
 1.4815424E+01  4.4888422E+02
 1.4825195E+01  4.5062570E+02
 1.4834967E+01  4.5140189E+02
 1.4844739E+01  4.5175742E+02
 1.4854511E+01  4.5061206E+02
 1.4864283E+01  4.4893402E+02
 1.4874055E+01  4.4667087E+02
 1.4883826E+01  4.4481985E+02
 1.4893598E+01  4.4335303E+02
 1.4903370E+01  4.4259442E+02
 1.4913142E+01  4.4203781E+02
 1.4922914E+01  4.4136728E+02
 1.4932686E+01  4.4072217E+02
 1.4942457E+01  4.4013153E+02
 1.4952229E+01  4.3997076E+02
 1.4962001E+01  4.3991772E+02
 1.4971773E+01  4.3996381E+02
 1.4981545E+01  4.3973132E+02
 1.4991317E+01  4.3941766E+02
 1.5001088E+01  4.3921823E+02
 1.5010860E+01  4.3910385E+02
 1.5020632E+01  4.3925061E+02
 1.5030404E+01  4.3930850E+02
 1.5040176E+01  4.3955066E+02
 1.5049948E+01  4.3972250E+02
 1.5059720E+01  4.3971835E+02
 1.5069491E+01  4.3956137E+02
 1.5079263E+01  4.3942847E+02
 1.5089035E+01  4.3934869E+02
 1.5098807E+01  4.3933698E+02
 1.5108579E+01  4.3954938E+02
 1.5118351E+01  4.3970499E+02
 1.5128122E+01  4.3981882E+02
 1.5137894E+01  4.3990256E+02
 1.5147666E+01  4.4013885E+02
 1.5157438E+01  4.4012198E+02
 1.5167210E+01  4.4043515E+02
 1.5176982E+01  4.4068701E+02
 1.5186753E+01  4.4102109E+02
 1.5196525E+01  4.4125208E+02
 1.5206297E+01  4.4151074E+02
 1.5216069E+01  4.4177274E+02
 1.5225841E+01  4.4215952E+02
 1.5235613E+01  4.4266006E+02
 1.5245384E+01  4.4328778E+02
 1.5255156E+01  4.4399814E+02
 1.5264928E+01  4.4505359E+02
 1.5274700E+01  4.4628427E+02
 1.5284472E+01  4.4737076E+02
 1.5294244E+01  4.4849881E+02
 1.5304015E+01  4.4980478E+02
 1.5313787E+01  4.5122949E+02
 1.5323559E+01  4.5312476E+02
 1.5333331E+01  4.5563364E+02
 1.5343103E+01  4.5893597E+02
 1.5352875E+01  4.6300021E+02
 1.5362646E+01  4.6876260E+02
 1.5372418E+01  4.9010666E+02
 1.5382190E+01  5.2918115E+02
 1.5391962E+01  5.6811493E+02
 1.5401734E+01  5.9006030E+02
 1.5411506E+01  6.0794580E+02
 1.5421277E+01  6.3626514E+02
 1.5431049E+01  6.5941956E+02
 1.5440821E+01  6.6797864E+02
 1.5450593E+01  6.6881323E+02
 1.5460365E+01  6.7301935E+02
 1.5470137E+01  6.5812561E+02
 1.5479908E+01  6.1994031E+02
 1.5489680E+01  5.6311255E+02
 1.5499452E+01  5.2107233E+02
 1.5509224E+01  4.8865979E+02
 1.5518996E+01  4.7729312E+02
 1.5528768E+01  4.6943845E+02
 1.5538539E+01  4.6348599E+02
 1.5548311E+01  4.5919153E+02
 1.5558083E+01  4.5594861E+02
 1.5567855E+01  4.5317410E+02
 1.5577627E+01  4.5104742E+02
 1.5587399E+01  4.4931696E+02
 1.5597171E+01  4.4789075E+02
 1.5606942E+01  4.4657651E+02
 1.5616714E+01  4.4532477E+02
 1.5626486E+01  4.4424838E+02
 1.5636258E+01  4.4303741E+02
 1.5646030E+01  4.4199384E+02
 1.5655802E+01  4.4095322E+02
 1.5665573E+01  4.4039746E+02
 1.5675345E+01  4.4000089E+02
 1.5685117E+01  4.3986041E+02
 1.5694889E+01  4.3993076E+02
 1.5704661E+01  4.4004285E+02
 1.5714433E+01  4.4020862E+02
 1.5724204E+01  4.4024002E+02
 1.5733976E+01  4.4030875E+02
 1.5743748E+01  4.4034592E+02
 1.5753520E+01  4.4020270E+02
 1.5763292E+01  4.4033792E+02
 1.5773064E+01  4.4051282E+02
 1.5782835E+01  4.4058997E+02
 1.5792607E+01  4.4071683E+02
 1.5802379E+01  4.4109113E+02
 1.5812151E+01  4.4145297E+02
 1.5821923E+01  4.4188608E+02
 1.5831695E+01  4.4201425E+02
 1.5841466E+01  4.4270908E+02
 1.5851238E+01  4.4370197E+02
 1.5861010E+01  4.4489340E+02
 1.5870782E+01  4.4625940E+02
 1.5880554E+01  4.4751553E+02
 1.5890326E+01  4.4901538E+02
 1.5900097E+01  4.5068079E+02
 1.5909869E+01  4.5286594E+02
 1.5919641E+01  4.5530429E+02
 1.5929413E+01  4.5806934E+02
 1.5939185E+01  4.6159888E+02
 1.5948957E+01  4.6571625E+02
 1.5958728E+01  4.7117593E+02
 1.5968500E+01  4.7823923E+02
 1.5978272E+01  4.8816876E+02
 1.5988044E+01  5.0108762E+02
 1.5997816E+01  5.2116949E+02
 1.6007588E+01  5.4690063E+02
 1.6017359E+01  5.9636163E+02
 1.6027131E+01  6.3983154E+02
 1.6036903E+01  6.6170966E+02
 1.6046675E+01  6.5083856E+02
 1.6056447E+01  6.2302454E+02
 1.6066219E+01  5.7308160E+02
 1.6075990E+01  5.3574579E+02
 1.6085762E+01  5.0866550E+02
 1.6095534E+01  4.9052139E+02
 1.6105306E+01  4.8026535E+02
 1.6115078E+01  4.7238141E+02
 1.6124850E+01  4.6675354E+02
 1.6134622E+01  4.6196088E+02
 1.6144393E+01  4.5847171E+02
 1.6154165E+01  4.5553442E+02
 1.6163937E+01  4.5319003E+02
 1.6173709E+01  4.5110742E+02
 1.6183481E+01  4.4919617E+02
 1.6193253E+01  4.4754196E+02
 1.6203024E+01  4.4600418E+02
 1.6212796E+01  4.4450583E+02
 1.6222568E+01  4.4334381E+02
 1.6232340E+01  4.4255725E+02
 1.6242112E+01  4.4202011E+02
 1.6251884E+01  4.4143372E+02
 1.6261655E+01  4.4064325E+02
 1.6271427E+01  4.3994849E+02
 1.6281199E+01  4.3934357E+02
 1.6290971E+01  4.3885764E+02
 1.6300743E+01  4.3840689E+02
 1.6310515E+01  4.3786911E+02
 1.6320286E+01  4.3739529E+02
 1.6330058E+01  4.3664523E+02
 1.6339830E+01  4.3631662E+02
 1.6349602E+01  4.3588382E+02
 1.6359374E+01  4.3591904E+02
 1.6369146E+01  4.3602698E+02
 1.6378917E+01  4.3607394E+02
 1.6388689E+01  4.3589758E+02
 1.6398461E+01  4.3580408E+02
 1.6408233E+01  4.3545212E+02
 1.6418005E+01  4.3521130E+02
 1.6427777E+01  4.3483371E+02
 1.6437548E+01  4.3467599E+02
 1.6447320E+01  4.3459396E+02
 1.6457092E+01  4.3443063E+02
 1.6466864E+01  4.3435974E+02
 1.6476636E+01  4.3436353E+02
 1.6486408E+01  4.3432361E+02
 1.6496179E+01  4.3431256E+02
 1.6505951E+01  4.3418576E+02
 1.6515723E+01  4.3408646E+02
 1.6525495E+01  4.3429242E+02
 1.6535267E+01  4.3412015E+02
 1.6545039E+01  4.3389706E+02
 1.6554810E+01  4.3372232E+02
 1.6564582E+01  4.3331921E+02
 1.6574354E+01  4.3296072E+02
 1.6584126E+01  4.3279327E+02
 1.6593898E+01  4.3258807E+02
 1.6603670E+01  4.3272836E+02
 1.6613441E+01  4.3281015E+02
 1.6623213E+01  4.3301724E+02
 1.6632985E+01  4.3300061E+02
 1.6642757E+01  4.3298492E+02
 1.6652529E+01  4.3280435E+02
 1.6662301E+01  4.3276782E+02
 1.6672072E+01  4.3278427E+02
 1.6681844E+01  4.3295630E+02
 1.6691616E+01  4.3307584E+02
 1.6701388E+01  4.3318762E+02
 1.6711160E+01  4.3294705E+02
 1.6720932E+01  4.3306149E+02
 1.6730704E+01  4.3311267E+02
 1.6740475E+01  4.3329636E+02
 1.6750247E+01  4.3331393E+02
 1.6760019E+01  4.3323181E+02
 1.6769791E+01  4.3318292E+02
 1.6779563E+01  4.3310599E+02
 1.6789335E+01  4.3320627E+02
 1.6799106E+01  4.3322742E+02
 1.6808878E+01  4.3336087E+02
 1.6818650E+01  4.3335654E+02
 1.6828422E+01  4.3327362E+02
 1.6838194E+01  4.3323044E+02
 1.6847966E+01  4.3323895E+02
 1.6857737E+01  4.3345151E+02
 1.6867509E+01  4.3366183E+02
 1.6877281E+01  4.3391925E+02
 1.6887053E+01  4.3412244E+02
 1.6896825E+01  4.3434222E+02
 1.6906597E+01  4.3420316E+02
 1.6916368E+01  4.3403128E+02
 1.6926140E+01  4.3381308E+02
 1.6935912E+01  4.3413800E+02
 1.6945684E+01  4.3445898E+02
 1.6955456E+01  4.3492715E+02
 1.6965228E+01  4.3516559E+02
 1.6974999E+01  4.3559976E+02
 1.6984771E+01  4.3613367E+02
 1.6994543E+01  4.3674207E+02
 1.7004315E+01  4.3735043E+02
 1.7014087E+01  4.3797797E+02
 1.7023859E+01  4.3868277E+02
 1.7033630E+01  4.3954791E+02
 1.7043402E+01  4.4037927E+02
 1.7053174E+01  4.4153513E+02
 1.7062946E+01  4.4334213E+02
 1.7072718E+01  4.4584204E+02
 1.7082490E+01  4.4911526E+02
 1.7092261E+01  4.5455457E+02
 1.7102033E+01  4.6110947E+02
 1.7111805E+01  4.9120700E+02
 1.7121577E+01  5.1153967E+02
 1.7131349E+01  5.3963605E+02
 1.7141121E+01  5.4586133E+02
 1.7150892E+01  5.5790289E+02
 1.7160664E+01  5.4827832E+02
 1.7170436E+01  5.3803571E+02
 1.7180208E+01  5.1817865E+02
 1.7189980E+01  4.9909421E+02
 1.7199752E+01  4.6971930E+02
 1.7209523E+01  4.5663190E+02
 1.7219295E+01  4.5125360E+02
 1.7229067E+01  4.4741949E+02
 1.7238839E+01  4.4535745E+02
 1.7248611E+01  4.4389792E+02
 1.7258383E+01  4.4269495E+02
 1.7268155E+01  4.4169485E+02
 1.7277926E+01  4.4101349E+02
 1.7287698E+01  4.4034766E+02
 1.7297470E+01  4.3962213E+02
 1.7307242E+01  4.3888083E+02
 1.7317014E+01  4.3835675E+02
 1.7326786E+01  4.3787064E+02
 1.7336557E+01  4.3757501E+02
 1.7346329E+01  4.3732822E+02
 1.7356101E+01  4.3697974E+02
 1.7365873E+01  4.3659256E+02
 1.7375645E+01  4.3647845E+02
 1.7385417E+01  4.3625394E+02
 1.7395188E+01  4.3634335E+02
 1.7404960E+01  4.3662900E+02
 1.7414732E+01  4.3702222E+02
 1.7424504E+01  4.3752853E+02
 1.7434276E+01  4.3784598E+02
 1.7444048E+01  4.3803717E+02
 1.7453819E+01  4.3809064E+02
 1.7463591E+01  4.3834241E+02
 1.7473363E+01  4.3889548E+02
 1.7483135E+01  4.4009583E+02
 1.7492907E+01  4.4099762E+02
 1.7502679E+01  4.4158743E+02
 1.7512450E+01  4.4225128E+02
 1.7522222E+01  4.4326746E+02
 1.7531994E+01  4.4444748E+02
 1.7541766E+01  4.4563800E+02
 1.7551538E+01  4.4723953E+02
 1.7561310E+01  4.4890097E+02
 1.7571081E+01  4.5079575E+02
 1.7580853E+01  4.5286273E+02
 1.7590625E+01  4.5579071E+02
 1.7600397E+01  4.5943967E+02
 1.7610169E+01  4.6455542E+02
 1.7619941E+01  4.7118100E+02
 1.7629712E+01  4.8073035E+02
 1.7639484E+01  4.9406845E+02
 1.7649256E+01  5.1429016E+02
 1.7659028E+01  5.3800250E+02
 1.7668800E+01  5.6243469E+02
 1.7678572E+01  5.7466504E+02
 1.7688343E+01  5.7610608E+02
 1.7698115E+01  5.5826178E+02
 1.7707887E+01  5.3638251E+02
 1.7717659E+01  5.1399329E+02
 1.7727431E+01  4.9554050E+02
 1.7737203E+01  4.8129202E+02
 1.7746974E+01  4.7210916E+02
 1.7756746E+01  4.6511340E+02
 1.7766518E+01  4.6031763E+02
 1.7776290E+01  4.5641986E+02
 1.7786062E+01  4.5358383E+02
 1.7795834E+01  4.5142856E+02
 1.7805606E+01  4.4959192E+02
 1.7815377E+01  4.4823611E+02
 1.7825149E+01  4.4678326E+02
 1.7834921E+01  4.4542441E+02
 1.7844693E+01  4.4430402E+02
 1.7854465E+01  4.4338672E+02
 1.7864237E+01  4.4267792E+02
 1.7874008E+01  4.4242731E+02
 1.7883780E+01  4.4193481E+02
 1.7893552E+01  4.4156970E+02
 1.7903324E+01  4.4119724E+02
 1.7913096E+01  4.4090411E+02
 1.7922868E+01  4.4070386E+02
 1.7932639E+01  4.4056363E+02
 1.7942411E+01  4.4028665E+02
 1.7952183E+01  4.4006516E+02
 1.7961955E+01  4.4025961E+02
 1.7971727E+01  4.4039026E+02
 1.7981499E+01  4.4050143E+02
 1.7991270E+01  4.4090128E+02
 1.8001042E+01  4.4148663E+02
 1.8010814E+01  4.4205991E+02
 1.8020586E+01  4.4245850E+02
 1.8030358E+01  4.4337918E+02
 1.8040130E+01  4.4431198E+02
 1.8049901E+01  4.4538266E+02
 1.8059673E+01  4.4653360E+02
 1.8069445E+01  4.4774057E+02
 1.8079217E+01  4.4902496E+02
 1.8088989E+01  4.5036896E+02
 1.8098761E+01  4.5240488E+02
 1.8108532E+01  4.5525565E+02
 1.8118304E+01  4.5889877E+02
 1.8128076E+01  4.6372763E+02
 1.8137848E+01  4.7025873E+02
 1.8147620E+01  4.7961972E+02
 1.8157392E+01  4.9233008E+02
 1.8167163E+01  5.1287616E+02
 1.8176935E+01  5.3778271E+02
 1.8186707E+01  5.6485864E+02
 1.8196479E+01  5.8531384E+02
 1.8206251E+01  5.8969727E+02
 1.8216023E+01  5.8150793E+02
 1.8225794E+01  5.5938599E+02
 1.8235566E+01  5.2539471E+02
 1.8245338E+01  5.0535626E+02
 1.8255110E+01  4.8307904E+02
 1.8264882E+01  4.7202731E+02
 1.8274654E+01  4.6401196E+02
 1.8284425E+01  4.5885123E+02
 1.8294197E+01  4.5537491E+02
 1.8303969E+01  4.5273331E+02
 1.8313741E+01  4.5047141E+02
 1.8323513E+01  4.4846588E+02
 1.8333285E+01  4.4669531E+02
 1.8343057E+01  4.4498212E+02
 1.8352828E+01  4.4365326E+02
 1.8362600E+01  4.4276691E+02
 1.8372372E+01  4.4214746E+02
 1.8382144E+01  4.4152338E+02
 1.8391916E+01  4.4088809E+02
 1.8401688E+01  4.4030588E+02
 1.8411459E+01  4.3972198E+02
 1.8421231E+01  4.3936014E+02
 1.8431003E+01  4.3922363E+02
 1.8440775E+01  4.3884488E+02
 1.8450547E+01  4.3861703E+02
 1.8460319E+01  4.3828110E+02
 1.8470090E+01  4.3812335E+02
 1.8479862E+01  4.3792093E+02
 1.8489634E+01  4.3780975E+02
 1.8499406E+01  4.3764456E+02
 1.8509178E+01  4.3760684E+02
 1.8518950E+01  4.3760156E+02
 1.8528721E+01  4.3778125E+02
 1.8538493E+01  4.3787463E+02
 1.8548265E+01  4.3823087E+02
 1.8558037E+01  4.3856775E+02
 1.8567809E+01  4.3920261E+02
 1.8577581E+01  4.4000726E+02
 1.8587352E+01  4.4093671E+02
 1.8597124E+01  4.4187296E+02
 1.8606896E+01  4.4291348E+02
 1.8616668E+01  4.4428281E+02
 1.8626440E+01  4.4553046E+02
 1.8636212E+01  4.4755664E+02
 1.8645983E+01  4.5041998E+02
 1.8655755E+01  4.5473114E+02
 1.8665527E+01  4.6045715E+02
 1.8675299E+01  4.6702997E+02
 1.8685071E+01  4.7438657E+02
 1.8694843E+01  4.7960629E+02
 1.8704614E+01  4.8204172E+02
 1.8714386E+01  4.7998166E+02
 1.8724158E+01  4.7303937E+02
 1.8733930E+01  4.6588281E+02
 1.8743702E+01  4.5750165E+02
 1.8753474E+01  4.5212033E+02
 1.8763245E+01  4.4809149E+02
 1.8773017E+01  4.4525854E+02
 1.8782789E+01  4.4305157E+02
 1.8792561E+01  4.4155737E+02
 1.8802333E+01  4.4055365E+02
 1.8812105E+01  4.3980096E+02
 1.8821876E+01  4.3922049E+02
 1.8831648E+01  4.3873239E+02
 1.8841420E+01  4.3823996E+02
 1.8851192E+01  4.3786914E+02
 1.8860964E+01  4.3751236E+02
 1.8870736E+01  4.3720700E+02
 1.8880508E+01  4.3705984E+02
 1.8890279E+01  4.3679822E+02
 1.8900051E+01  4.3666678E+02
 1.8909823E+01  4.3667560E+02
 1.8919595E+01  4.3694696E+02
 1.8929367E+01  4.3733722E+02
 1.8939139E+01  4.3752237E+02
 1.8948910E+01  4.3752960E+02
 1.8958682E+01  4.3734906E+02
 1.8968454E+01  4.3756433E+02
 1.8978226E+01  4.3788828E+02
 1.8987998E+01  4.3811050E+02
 1.8997770E+01  4.3837155E+02
 1.9007541E+01  4.3865323E+02
 1.9017313E+01  4.3894879E+02
 1.9027085E+01  4.3924146E+02
 1.9036857E+01  4.3953772E+02
 1.9046629E+01  4.4009174E+02
 1.9056401E+01  4.4074933E+02
 1.9066172E+01  4.4167001E+02
 1.9075944E+01  4.4289346E+02
 1.9085716E+01  4.4423523E+02
 1.9095488E+01  4.4571448E+02
 1.9105260E+01  4.4765244E+02
 1.9115032E+01  4.4979294E+02
 1.9124803E+01  4.5324097E+02
 1.9134575E+01  4.5701874E+02
 1.9144347E+01  4.6408899E+02
 1.9154119E+01  4.7052139E+02
 1.9163891E+01  4.8448032E+02
 1.9173663E+01  4.9378625E+02
 1.9183434E+01  5.0790698E+02
 1.9193206E+01  5.1144272E+02
 1.9202978E+01  5.0601663E+02
 1.9212750E+01  4.9137729E+02
 1.9222522E+01  4.8120761E+02
 1.9232294E+01  4.6954669E+02
 1.9242065E+01  4.6241452E+02
 1.9251837E+01  4.5682346E+02
 1.9261609E+01  4.5327930E+02
 1.9271381E+01  4.5032288E+02
 1.9281153E+01  4.4832782E+02
 1.9290925E+01  4.4658350E+02
 1.9300696E+01  4.4535190E+02
 1.9310468E+01  4.4433377E+02
 1.9320240E+01  4.4362564E+02
 1.9330012E+01  4.4299017E+02
 1.9339784E+01  4.4264789E+02
 1.9349556E+01  4.4228308E+02
 1.9359327E+01  4.4187878E+02
 1.9369099E+01  4.4138843E+02
 1.9378871E+01  4.4112375E+02
 1.9388643E+01  4.4101135E+02
 1.9398415E+01  4.4096072E+02
 1.9408187E+01  4.4123138E+02
 1.9417959E+01  4.4170154E+02
 1.9427730E+01  4.4184979E+02
 1.9437502E+01  4.4206177E+02
 1.9447274E+01  4.4221259E+02
 1.9457046E+01  4.4241995E+02
 1.9466818E+01  4.4278027E+02
 1.9476590E+01  4.4350980E+02
 1.9486361E+01  4.4433163E+02
 1.9496133E+01  4.4502786E+02
 1.9505905E+01  4.4579279E+02
 1.9515677E+01  4.4665945E+02
 1.9525449E+01  4.4762704E+02
 1.9535221E+01  4.4865894E+02
 1.9544992E+01  4.5010837E+02
 1.9554764E+01  4.5189337E+02
 1.9564536E+01  4.5389490E+02
 1.9574308E+01  4.5616721E+02
 1.9584080E+01  4.5939523E+02
 1.9593852E+01  4.6345877E+02
 1.9603623E+01  4.6895316E+02
 1.9613395E+01  4.7624094E+02
 1.9623167E+01  4.8652280E+02
 1.9632939E+01  4.9982825E+02
 1.9642711E+01  5.2146027E+02
 1.9652483E+01  5.6089282E+02
 1.9662254E+01  5.8085443E+02
 1.9672026E+01  5.9074097E+02
 1.9681798E+01  5.7613379E+02
 1.9691570E+01  5.5144861E+02
 1.9701342E+01  5.2093225E+02
 1.9711114E+01  5.0017181E+02
 1.9720885E+01  4.8400940E+02
 1.9730657E+01  4.7411111E+02
 1.9740429E+01  4.6743436E+02
 1.9750201E+01  4.6301434E+02
 1.9759973E+01  4.5986316E+02
 1.9769745E+01  4.5735458E+02
 1.9779516E+01  4.5521017E+02
 1.9789288E+01  4.5338278E+02
 1.9799060E+01  4.5175574E+02
 1.9808832E+01  4.5018591E+02
 1.9818604E+01  4.4897314E+02
 1.9828376E+01  4.4787717E+02
 1.9838147E+01  4.4691150E+02
 1.9847919E+01  4.4607434E+02
 1.9857691E+01  4.4521539E+02
 1.9867463E+01  4.4457999E+02
 1.9877235E+01  4.4407147E+02
 1.9887007E+01  4.4361597E+02
 1.9896778E+01  4.4304614E+02
 1.9906550E+01  4.4256012E+02
 1.9916322E+01  4.4222849E+02
 1.9926094E+01  4.4217194E+02
 1.9935866E+01  4.4223575E+02
 1.9945638E+01  4.4231787E+02
 1.9955410E+01  4.4215613E+02
 1.9965181E+01  4.4204175E+02
 1.9974953E+01  4.4210428E+02
 1.9984725E+01  4.4218274E+02
 1.9994497E+01  4.4262076E+02
 2.0004269E+01  4.4323825E+02
 2.0014041E+01  4.4377960E+02
 2.0023812E+01  4.4448984E+02
 2.0033584E+01  4.4527530E+02
 2.0043356E+01  4.4607654E+02
 2.0053128E+01  4.4723975E+02
 2.0062900E+01  4.4868103E+02
 2.0072672E+01  4.5048615E+02
 2.0082443E+01  4.5249118E+02
 2.0092215E+01  4.5501749E+02
 2.0101987E+01  4.5785083E+02
 2.0111759E+01  4.6140329E+02
 2.0121531E+01  4.6493845E+02
 2.0131303E+01  4.6754758E+02
 2.0141074E+01  4.6793124E+02
 2.0150846E+01  4.6629297E+02
 2.0160618E+01  4.6285110E+02
 2.0170390E+01  4.5910229E+02
 2.0180162E+01  4.5568088E+02
 2.0189934E+01  4.5267480E+02
 2.0199705E+01  4.5046280E+02
 2.0209477E+01  4.4857959E+02
 2.0219249E+01  4.4710309E+02
 2.0229021E+01  4.4568463E+02
 2.0238793E+01  4.4450018E+02
 2.0248565E+01  4.4346857E+02
 2.0258336E+01  4.4265332E+02
 2.0268108E+01  4.4182532E+02
 2.0277880E+01  4.4139026E+02
 2.0287652E+01  4.4093338E+02
 2.0297424E+01  4.4055045E+02
 2.0307196E+01  4.4035486E+02
 2.0316967E+01  4.4022928E+02
 2.0326739E+01  4.4009348E+02
 2.0336511E+01  4.3977206E+02
 2.0346283E+01  4.3943246E+02
 2.0356055E+01  4.3925937E+02
 2.0365827E+01  4.3912604E+02
 2.0375598E+01  4.3893280E+02
 2.0385370E+01  4.3886768E+02
 2.0395142E+01  4.3850568E+02
 2.0404914E+01  4.3813501E+02
 2.0414686E+01  4.3778641E+02
 2.0424458E+01  4.3747723E+02
 2.0434229E+01  4.3723422E+02
 2.0444001E+01  4.3740405E+02
 2.0453773E+01  4.3741071E+02
 2.0463545E+01  4.3739639E+02
 2.0473317E+01  4.3749536E+02
 2.0483089E+01  4.3742496E+02
 2.0492860E+01  4.3720105E+02
 2.0502632E+01  4.3698178E+02
 2.0512404E+01  4.3698215E+02
 2.0522176E+01  4.3724301E+02
 2.0531948E+01  4.3737247E+02
 2.0541720E+01  4.3723221E+02
 2.0551492E+01  4.3708789E+02
 2.0561263E+01  4.3719058E+02
 2.0571035E+01  4.3738037E+02
 2.0580807E+01  4.3742172E+02
 2.0590579E+01  4.3726608E+02
 2.0600351E+01  4.3714410E+02
 2.0610123E+01  4.3699792E+02
 2.0619894E+01  4.3702664E+02
 2.0629666E+01  4.3679382E+02
 2.0639438E+01  4.3690738E+02
 2.0649210E+01  4.3699640E+02
 2.0658982E+01  4.3718481E+02
 2.0668754E+01  4.3736020E+02
 2.0678525E+01  4.3745438E+02
 2.0688297E+01  4.3749023E+02
 2.0698069E+01  4.3762943E+02
 2.0707841E+01  4.3761417E+02
 2.0717613E+01  4.3759302E+02
 2.0727385E+01  4.3746674E+02
 2.0737156E+01  4.3748218E+02
 2.0746928E+01  4.3762372E+02
 2.0756700E+01  4.3795300E+02
 2.0766472E+01  4.3827191E+02
 2.0776244E+01  4.3846515E+02
 2.0786016E+01  4.3833359E+02
 2.0795787E+01  4.3820813E+02
 2.0805559E+01  4.3815955E+02
 2.0815331E+01  4.3848453E+02
 2.0825103E+01  4.3879034E+02
 2.0834875E+01  4.3929926E+02
 2.0844647E+01  4.3958051E+02
 2.0854418E+01  4.3970569E+02
 2.0864190E+01  4.3997260E+02
 2.0873962E+01  4.4007263E+02
 2.0883734E+01  4.4035648E+02
 2.0893506E+01  4.4052139E+02
 2.0903278E+01  4.4090070E+02
 2.0913049E+01  4.4126129E+02
 2.0922821E+01  4.4169308E+02
 2.0932593E+01  4.4226898E+02
 2.0942365E+01  4.4295242E+02
 2.0952137E+01  4.4341788E+02
 2.0961909E+01  4.4419482E+02
 2.0971680E+01  4.4519934E+02
 2.0981452E+01  4.4627704E+02
 2.0991224E+01  4.4771503E+02
 2.1000996E+01  4.4952756E+02
 2.1010768E+01  4.5174609E+02
 2.1020540E+01  4.5461771E+02
 2.1030311E+01  4.5813309E+02
 2.1040083E+01  4.6090619E+02
 2.1049855E+01  4.6263449E+02
 2.1059627E+01  4.6165179E+02
 2.1069399E+01  4.5957971E+02
 2.1079171E+01  4.5526544E+02
 2.1088943E+01  4.5260892E+02
 2.1098714E+01  4.4983771E+02
 2.1108486E+01  4.4780893E+02
 2.1118258E+01  4.4613159E+02
 2.1128030E+01  4.4502399E+02
 2.1137802E+01  4.4420343E+02
 2.1147574E+01  4.4360358E+02
 2.1157345E+01  4.4339972E+02
 2.1167117E+01  4.4320670E+02
 2.1176889E+01  4.4312143E+02
 2.1186661E+01  4.4281332E+02
 2.1196433E+01  4.4283240E+02
 2.1206205E+01  4.4265027E+02
 2.1215976E+01  4.4246671E+02
 2.1225748E+01  4.4226556E+02
 2.1235520E+01  4.4198962E+02
 2.1245292E+01  4.4193106E+02
 2.1255064E+01  4.4209109E+02
 2.1264836E+01  4.4237198E+02
 2.1274607E+01  4.4249487E+02
 2.1284379E+01  4.4246698E+02
 2.1294151E+01  4.4242526E+02
 2.1303923E+01  4.4273038E+02
 2.1313695E+01  4.4297778E+02
 2.1323467E+01  4.4328076E+02
 2.1333238E+01  4.4360223E+02
 2.1343010E+01  4.4390030E+02
 2.1352782E+01  4.4406528E+02
 2.1362554E+01  4.4447281E+02
 2.1372326E+01  4.4501843E+02
 2.1382098E+01  4.4599762E+02
 2.1391869E+01  4.4713605E+02
 2.1401641E+01  4.4812408E+02
 2.1411413E+01  4.4955435E+02
 2.1421185E+01  4.5125748E+02
 2.1430957E+01  4.5347812E+02
 2.1440729E+01  4.5655215E+02
 2.1450500E+01  4.6031494E+02
 2.1460272E+01  4.6427869E+02
 2.1470044E+01  4.6843927E+02
 2.1479816E+01  4.7071500E+02
 2.1489588E+01  4.7097165E+02
 2.1499360E+01  4.6778485E+02
 2.1509131E+01  4.6333490E+02
 2.1518903E+01  4.5896936E+02
 2.1528675E+01  4.5541251E+02
 2.1538447E+01  4.5283072E+02
 2.1548219E+01  4.5096579E+02
 2.1557991E+01  4.4981021E+02
 2.1567762E+01  4.4907001E+02
 2.1577534E+01  4.4863495E+02
 2.1587306E+01  4.4849512E+02
 2.1597078E+01  4.4820218E+02
 2.1606850E+01  4.4804776E+02
 2.1616622E+01  4.4779437E+02
 2.1626394E+01  4.4773169E+02
 2.1636165E+01  4.4769986E+02
 2.1645937E+01  4.4773553E+02
 2.1655709E+01  4.4788339E+02
 2.1665481E+01  4.4793298E+02
 2.1675253E+01  4.4807407E+02
 2.1685025E+01  4.4832822E+02
 2.1694796E+01  4.4874915E+02
 2.1704568E+01  4.4915192E+02
 2.1714340E+01  4.4978638E+02
 2.1724112E+01  4.5044080E+02
 2.1733884E+01  4.5121667E+02
 2.1743656E+01  4.5212912E+02
 2.1753427E+01  4.5318472E+02
 2.1763199E+01  4.5394760E+02
 2.1772971E+01  4.5486276E+02
 2.1782743E+01  4.5628998E+02
 2.1792515E+01  4.5815479E+02
 2.1802287E+01  4.6046872E+02
 2.1812058E+01  4.6318414E+02
 2.1821830E+01  4.6646561E+02
 2.1831602E+01  4.7081598E+02
 2.1841374E+01  4.7648233E+02
 2.1851146E+01  4.8335117E+02
 2.1860918E+01  4.9261917E+02
 2.1870689E+01  5.0149707E+02
 2.1880461E+01  5.1355707E+02
 2.1890233E+01  5.2231342E+02
 2.1900005E+01  5.3072229E+02
 2.1909777E+01  5.3340869E+02
 2.1919549E+01  5.3296143E+02
 2.1929320E+01  5.2763123E+02
 2.1939092E+01  5.1895825E+02
 2.1948864E+01  5.0779187E+02
 2.1958636E+01  4.9744574E+02
 2.1968408E+01  4.8862430E+02
 2.1978180E+01  4.8244669E+02
 2.1987951E+01  4.7804221E+02
 2.1997723E+01  4.7533942E+02
 2.2007495E+01  4.7287207E+02
 2.2017267E+01  4.7101938E+02
 2.2027039E+01  4.6952670E+02
 2.2036811E+01  4.6847159E+02
 2.2046582E+01  4.6774445E+02
 2.2056354E+01  4.6735501E+02
 2.2066126E+01  4.6692548E+02
 2.2075898E+01  4.6646829E+02
 2.2085670E+01  4.6624869E+02
 2.2095442E+01  4.6612265E+02
 2.2105213E+01  4.6620456E+02
 2.2114985E+01  4.6627786E+02
 2.2124757E+01  4.6655191E+02
 2.2134529E+01  4.6678653E+02
 2.2144301E+01  4.6721860E+02
 2.2154073E+01  4.6753500E+02
 2.2163845E+01  4.6784302E+02
 2.2173616E+01  4.6821603E+02
 2.2183388E+01  4.6835501E+02
 2.2193160E+01  4.6861523E+02
 2.2202932E+01  4.6910052E+02
 2.2212704E+01  4.6968933E+02
 2.2222476E+01  4.7066049E+02
 2.2232247E+01  4.7170187E+02
 2.2242019E+01  4.7271396E+02
 2.2251791E+01  4.7347662E+02
 2.2261563E+01  4.7289597E+02
 2.2271335E+01  4.7248178E+02
 2.2281107E+01  4.7042319E+02
 2.2290878E+01  4.6883530E+02
 2.2300650E+01  4.7072165E+02
 2.2310422E+01  4.7483017E+02
 2.2320194E+01  4.8084491E+02
 2.2329966E+01  4.8701379E+02
 2.2339738E+01  4.9090433E+02
 2.2349509E+01  4.9267273E+02
 2.2359281E+01  4.9183313E+02
 2.2369053E+01  4.8972137E+02
 2.2378825E+01  4.8770108E+02
 2.2388597E+01  4.8495755E+02
 2.2398369E+01  4.8180792E+02
 2.2408140E+01  4.7767780E+02
